# CD+32 from Hamuy,
# corrected for atmospheric absorption by ALG
#
    3008.400     16.24290      4.20000
    3012.600     16.00587      4.20000
    3016.800     15.63502      4.20000
    3021.000     15.10317      4.20000
    3025.200     14.88756      4.20000
    3029.400     14.83716      4.20000
    3033.600     14.56925      4.20000
    3037.800     14.21064      4.20000
    3042.000     14.04130      4.20000
    3046.200     14.02783      4.20000
    3050.400     14.01917      4.20000
    3054.600     13.98061      4.20000
    3058.800     13.96399      4.20000
    3063.000     13.93179      4.20000
    3067.200     13.79354      4.20000
    3071.400     13.60587      4.20000
    3075.600     13.47073      4.20000
    3079.800     13.39217      4.20000
    3084.000     13.34387      4.20000
    3088.200     13.30820      4.20000
    3092.400     13.26703      4.20000
    3096.600     13.22158      4.20000
    3100.800     13.18339      4.20000
    3105.000     13.14539      4.20000
    3109.200     13.09363      4.20000
    3113.400     13.03694      4.20000
    3117.600     12.99155      4.20000
    3121.800     12.94537      4.20000
    3126.000     12.87996      4.20000
    3130.200     12.80899      4.20000
    3134.400     12.75106      4.20000
    3138.600     12.70725      4.20000
    3142.800     12.67495      4.20000
    3147.000     12.64985      4.20000
    3151.200     12.62771      4.20000
    3155.400     12.59902      4.20000
    3159.600     12.55444      4.20000
    3163.800     12.51124      4.20000
    3168.000     12.48750      4.20000
    3172.200     12.47563      4.20000
    3176.400     12.46644      4.20000
    3180.600     12.45064      4.20000
    3184.800     12.42018      4.20000
    3189.000     12.38156      4.20000
    3193.200     12.34171      4.20000
    3197.400     12.31681      4.20000
    3201.600     12.31993      4.20000
    3205.800     12.33314      4.20000
    3210.000     12.33878      4.20000
    3214.200     12.33408      4.20000
    3218.400     12.31730      4.20000
    3222.600     12.29854      4.20000
    3226.800     12.28568      4.20000
    3231.000     12.26518      4.20000
    3235.200     12.22933      4.20000
    3239.400     12.19393      4.20000
    3243.600     12.16890      4.20000
    3247.800     12.14784      4.20000
    3252.000     12.12697      4.20000
    3256.200     12.10817      4.20000
    3260.400     12.09349      4.20000
    3264.600     12.08969      4.20000
    3268.800     12.09715      4.20000
    3273.000     12.10044      4.20000
    3277.200     12.08863      4.20000
    3281.400     12.06015      4.20000
    3285.600     12.02025      4.20000
    3289.800     11.98494      4.20000
    3294.000     11.96455      4.20000
    3298.200     11.96195      4.20000
    3302.400     11.97421      4.20000
    3306.600     11.98760      4.20000
    3310.800     11.99545      4.20000
    3315.000     12.00282      4.20000
    3319.200     12.01145      4.20000
    3323.400     12.01997      4.20000
    3327.600     12.02436      4.20000
    3331.800     12.01650      4.20000
    3336.000     11.99753      4.20000
    3340.200     11.97721      4.20000
    3344.400     11.96403      4.20000
    3348.600     11.96601      4.20000
    3352.800     11.97950      4.20000
    3357.000     11.99004      4.20000
    3361.200     11.99185      4.20000
    3365.400     11.98607      4.20000
    3369.600     11.97735      4.20000
    3373.800     11.97340      4.20000
    3378.000     11.97453      4.20000
    3382.200     11.97627      4.20000
    3386.400     11.97585      4.20000
    3390.600     11.97106      4.20000
    3394.800     11.96358      4.20000
    3399.000     11.95684      4.20000
    3403.200     11.95384      4.20000
    3407.400     11.95780      4.20000
    3411.600     11.96285      4.20000
    3415.800     11.95899      4.20000
    3420.000     11.95046      4.20000
    3424.200     11.94658      4.20000
    3428.400     11.94545      4.20000
    3432.600     11.94149      4.20000
    3436.800     11.94099      4.20000
    3441.000     11.95312      4.20000
    3445.200     11.96511      4.20000
    3449.400     11.95952      4.20000
    3453.600     11.94612      4.20000
    3457.800     11.93861      4.20000
    3462.000     11.94003      4.20000
    3466.200     11.95213      4.20000
    3470.400     11.96810      4.20000
    3474.600     11.97951      4.20000
    3478.800     11.98154      4.20000
    3483.000     11.97060      4.20000
    3487.200     11.95307      4.20000
    3491.400     11.93580      4.20000
    3495.600     11.92397      4.20000
    3499.800     11.92174      4.20000
    3504.000     11.92092      4.20000
    3508.200     11.91388      4.20000
    3512.400     11.90451      4.20000
    3516.600     11.89593      4.20000
    3520.800     11.88474      4.20000
    3525.000     11.86938      4.20000
    3529.200     11.85487      4.20000
    3533.400     11.84494      4.20000
    3537.600     11.83944      4.20000
    3541.800     11.83762      4.20000
    3546.000     11.83496      4.20000
    3550.200     11.82955      4.20000
    3554.400     11.82893      4.20000
    3558.600     11.83698      4.20000
    3562.800     11.84782      4.20000
    3567.000     11.85648      4.20000
    3571.200     11.85988      4.20000
    3575.400     11.85659      4.20000
    3579.600     11.84906      4.20000
    3583.800     11.84003      4.20000
    3588.000     11.83194      4.20000
    3592.200     11.82660      4.20000
    3596.400     11.82509      4.20000
    3600.600     11.82568      4.20000
    3604.800     11.82185      4.20000
    3609.000     11.81290      4.20000
    3613.200     11.80662      4.20000
    3617.400     11.80377      4.20000
    3621.600     11.79687      4.20000
    3625.800     11.78353      4.20000
    3630.000     11.76640      4.20000
    3634.200     11.74864      4.20000
    3638.400     11.73395      4.20000
    3642.600     11.72467      4.20000
    3646.800     11.72246      4.20000
    3651.000     11.72346      4.20000
    3655.200     11.71880      4.20000
    3659.400     11.71000      4.20000
    3663.600     11.70618      4.20000
    3667.800     11.70819      4.20000
    3672.000     11.71203      4.20000
    3676.200     11.71392      4.20000
    3680.400     11.70954      4.20000
    3684.600     11.70125      4.20000
    3688.800     11.69518      4.20000
    3693.000     11.69129      4.20000
    3697.200     11.68683      4.20000
    3701.400     11.68021      4.20000
    3705.600     11.67024      4.20000
    3709.800     11.65698      4.20000
    3714.000     11.64089      4.20000
    3718.200     11.62499      4.20000
    3722.400     11.61309      4.20000
    3726.600     11.60195      4.20000
    3730.800     11.58630      4.20000
    3735.000     11.56920      4.20000
    3739.200     11.55544      4.20000
    3743.400     11.54087      4.20000
    3747.600     11.51989      4.20000
    3751.800     11.49740      4.20000
    3756.000     11.47881      4.20000
    3760.200     11.46074      4.20000
    3764.400     11.44075      4.20000
    3768.600     11.40870      4.20000
    3772.800     11.35587      4.20000
    3777.000     11.31050      4.20000
    3781.200     11.29592      4.20000
    3785.400     11.30619      4.20000
    3789.600     11.33474      4.20000
    3793.800     11.34821      4.20000
    3798.000     11.31681      4.20000
    3802.200     11.25775      4.20000
    3806.400     11.19181      4.20000
    3810.600     11.14798      4.20000
    3814.800     11.14651      4.20000
    3819.000     11.18315      4.20000
    3823.200     11.24924      4.20000
    3827.400     11.31208      4.20000
    3831.600     11.33600      4.20000
    3835.800     11.30665      4.20000
    3840.000     11.22765      4.20000
    3844.200     11.13309      4.20000
    3848.400     11.04874      4.20000
    3852.600     10.98210      4.20000
    3856.800     10.93911      4.20000
    3861.000     10.92425      4.20000
    3865.200     10.93934      4.20000
    3869.400     10.98347      4.20000
    3873.600     11.05234      4.20000
    3877.800     11.13551      4.20000
    3882.000     11.21384      4.20000
    3886.200     11.25325      4.20000
    3890.400     11.23488      4.20000
    3894.600     11.17219      4.20000
    3898.800     11.08881      4.20000
    3903.000     11.01209      4.20000
    3907.200     10.95542      4.20000
    3911.400     10.91815      4.20000
    3915.600     10.89975      4.20000
    3919.800     10.89996      4.20000
    3924.000     10.91259      4.20000
    3928.200     10.92598      4.20000
    3932.400     10.93308      4.20000
    3936.600     10.93151      4.20000
    3940.800     10.92846      4.20000
    3945.000     10.93897      4.20000
    3949.200     10.97141      4.20000
    3953.400     11.02893      4.20000
    3957.600     11.10387      4.20000
    3961.800     11.17812      4.20000
    3966.000     11.22172      4.20000
    3970.200     11.19919      4.20000
    3974.400     11.12226      4.20000
    3978.600     11.02854      4.20000
    3982.800     10.94361      4.20000
    3987.000     10.88480      4.20000
    3991.200     10.84539      4.20000
    3995.400     10.80979      4.20000
    3999.600     10.77407      4.20000
    4003.800     10.73768      4.20000
    4008.000     10.70577      4.20000
    4012.200     10.68532      4.20000
    4016.400     10.67516      4.20000
    4020.600     10.67186      4.20000
    4024.800     10.67306      4.20000
    4029.000     10.67624      4.20000
    4033.200     10.68050      4.20000
    4037.400     10.68571      4.20000
    4041.600     10.68970      4.20000
    4045.800     10.69053      4.20000
    4050.000     10.69120      4.20000
    4054.200     10.69523      4.20000
    4058.400     10.70762      4.20000
    4062.600     10.73330      4.20000
    4066.800     10.76722      4.20000
    4071.000     10.80336      4.20000
    4075.200     10.83639      4.20000
    4079.400     10.86049      4.20000
    4083.600     10.89017      4.20000
    4087.800     10.93913      4.20000
    4092.000     10.99844      4.20000
    4096.200     11.05601      4.20000
    4100.400     11.07866      4.20000
    4104.600     11.04092      4.20000
    4108.800     10.97515      4.20000
    4113.000     10.91082      4.20000
    4117.200     10.86040      4.20000
    4121.400     10.83065      4.20000
    4125.600     10.80816      4.20000
    4129.800     10.78234      4.20000
    4134.000     10.75361      4.20000
    4138.200     10.72354      4.20000
    4142.400     10.69935      4.20000
    4146.600     10.68521      4.20000
    4150.800     10.67685      4.20000
    4155.000     10.67117      4.20000
    4159.200     10.66710      4.20000
    4163.400     10.66432      4.20000
    4167.600     10.66566      4.20000
    4171.800     10.67071      4.20000
    4176.000     10.67216      4.20000
    4180.200     10.66712      4.20000
    4184.400     10.66000      4.20000
    4188.600     10.65366      4.20000
    4192.800     10.64928      4.20000
    4197.000     10.64577      4.20000
    4201.200     10.63812      4.20000
    4205.400     10.62650      4.20000
    4209.600     10.61733      4.20000
    4213.800     10.61357      4.20000
    4218.000     10.61482      4.20000
    4222.200     10.61891      4.20000
    4226.400     10.62152      4.20000
    4230.600     10.62079      4.20000
    4234.800     10.61737      4.20000
    4239.000     10.61258      4.20000
    4243.200     10.60838      4.20000
    4247.400     10.60567      4.20000
    4251.600     10.60460      4.20000
    4255.800     10.60353      4.20000
    4260.000     10.59942      4.20000
    4264.200     10.59351      4.20000
    4268.400     10.58979      4.20000
    4272.600     10.58905      4.20000
    4276.800     10.59029      4.20000
    4281.000     10.59515      4.20000
    4285.200     10.60601      4.20000
    4289.400     10.62271      4.20000
    4293.600     10.64432      4.20000
    4297.800     10.66412      4.20000
    4302.000     10.67341      4.20000
    4306.200     10.67395      4.20000
    4310.400     10.67171      4.20000
    4314.600     10.67721      4.20000
    4318.800     10.70136      4.20000
    4323.000     10.75028      4.20000
    4327.200     10.82812      4.20000
    4331.400     10.91881      4.20000
    4335.600     10.99629      4.20000
    4339.800     11.02703      4.20000
    4344.000     10.98218      4.20000
    4348.200     10.89321      4.20000
    4352.400     10.79888      4.20000
    4356.600     10.71776      4.20000
    4360.800     10.66274      4.20000
    4365.000     10.62716      4.20000
    4369.200     10.60278      4.20000
    4373.400     10.58902      4.20000
    4377.600     10.58406      4.20000
    4381.800     10.58356      4.20000
    4386.000     10.58355      4.20000
    4390.200     10.58141      4.20000
    4394.400     10.57542      4.20000
    4398.600     10.56598      4.20000
    4402.800     10.55448      4.20000
    4407.000     10.54603      4.20000
    4411.200     10.54418      4.20000
    4415.400     10.54468      4.20000
    4419.600     10.54391      4.20000
    4423.800     10.54157      4.20000
    4428.000     10.53765      4.20000
    4432.200     10.53298      4.20000
    4436.400     10.52927      4.20000
    4440.600     10.53096      4.20000
    4444.800     10.53967      4.20000
    4449.000     10.54957      4.20000
    4453.200     10.55618      4.20000
    4457.400     10.55906      4.20000
    4461.600     10.55768      4.20000
    4465.800     10.55112      4.20000
    4470.000     10.54106      4.20000
    4474.200     10.53346      4.20000
    4478.400     10.53015      4.20000
    4482.600     10.52626      4.20000
    4486.800     10.51902      4.20000
    4491.000     10.50855      4.20000
    4495.200     10.49601      4.20000
    4499.400     10.48370      4.20000
    4503.600     10.47540      4.20000
    4507.800     10.47647      4.20000
    4512.000     10.48767      4.20000
    4516.200     10.50532      4.20000
    4520.400     10.52292      4.20000
    4524.600     10.53100      4.20000
    4528.800     10.52802      4.20000
    4533.000     10.51993      4.20000
    4537.200     10.51334      4.20000
    4541.400     10.51535      4.20000
    4545.600     10.52541      4.20000
    4549.800     10.53740      4.20000
    4554.000     10.54402      4.20000
    4558.200     10.53714      4.20000
    4562.400     10.52035      4.20000
    4566.600     10.50401      4.20000
    4570.800     10.49373      4.20000
    4575.000     10.49298      4.20000
    4579.200     10.49799      4.20000
    4583.400     10.50104      4.20000
    4587.600     10.50059      4.20000
    4591.800     10.49768      4.20000
    4596.000     10.49292      4.20000
    4600.200     10.48738      4.20000
    4604.400     10.48086      4.20000
    4608.600     10.47258      4.20000
    4612.800     10.46601      4.20000
    4617.000     10.46564      4.20000
    4621.200     10.46813      4.20000
    4625.400     10.46828      4.20000
    4629.600     10.46787      4.20000
    4633.800     10.46976      4.20000
    4638.000     10.47233      4.20000
    4642.200     10.47371      4.20000
    4646.400     10.47402      4.20000
    4650.600     10.47337      4.20000
    4654.800     10.47463      4.20000
    4659.000     10.48070      4.20000
    4663.200     10.48719      4.20000
    4667.400     10.48957      4.20000
    4671.600     10.48711      4.20000
    4675.800     10.47970      4.20000
    4680.000     10.47081      4.20000
    4684.200     10.46397      4.20000
    4688.400     10.46120      4.20000
    4692.600     10.46375      4.20000
    4696.800     10.46899      4.20000
    4701.000     10.47411      4.20000
    4705.200     10.47761      4.20000
    4709.400     10.47829      4.20000
    4713.600     10.47589      4.20000
    4717.800     10.47103      4.20000
    4722.000     10.46639      4.20000
    4726.200     10.46407      4.20000
    4730.400     10.46419      4.20000
    4734.600     10.46624      4.20000
    4738.800     10.46790      4.20000
    4743.000     10.46766      4.20000
    4747.200     10.46631      4.20000
    4751.400     10.46479      4.20000
    4755.600     10.46464      4.20000
    4759.800     10.46607      4.20000
    4764.000     10.46637      4.20000
    4768.200     10.46420      4.20000
    4772.400     10.46049      4.20000
    4776.600     10.45653      4.20000
    4780.800     10.45446      4.20000
    4785.000     10.45468      4.20000
    4789.200     10.45472      4.20000
    4793.400     10.45431      4.20000
    4797.600     10.45592      4.20000
    4801.800     10.46048      4.20000
    4806.000     10.46743      4.20000
    4810.200     10.47571      4.20000
    4814.400     10.48343      4.20000
    4818.600     10.49103      4.20000
    4822.800     10.50177      4.20000
    4827.000     10.51561      4.20000
    4831.200     10.52953      4.20000
    4835.400     10.54702      4.20000
    4839.600     10.57552      4.20000
    4843.800     10.62388      4.20000
    4848.000     10.70318      4.20000
    4852.200     10.80405      4.20000
    4856.400     10.89829      4.20000
    4860.600     10.94937      4.20000
    4864.800     10.92012      4.20000
    4869.000     10.83446      4.20000
    4873.200     10.74313      4.20000
    4877.400     10.66687      4.20000
    4881.600     10.61410      4.20000
    4885.800     10.57942      4.20000
    4890.000     10.55194      4.20000
    4894.200     10.52884      4.20000
    4898.400     10.50925      4.20000
    4902.600     10.49488      4.20000
    4906.800     10.48807      4.20000
    4911.000     10.48890      4.20000
    4915.200     10.49710      4.20000
    4919.400     10.50473      4.20000
    4923.600     10.50222      4.20000
    4927.800     10.49268      4.20000
    4932.000     10.48187      4.20000
    4936.200     10.47033      4.20000
    4940.400     10.45826      4.20000
    4944.600     10.44888      4.20000
    4948.800     10.44504      4.20000
    4953.000     10.44400      4.20000
    4957.200     10.44298      4.20000
    4961.400     10.44010      4.20000
    4965.600     10.43366      4.20000
    4969.800     10.43168      4.20000
    4974.000     10.44102      4.20000
    4978.200     10.45541      4.20000
    4982.400     10.46854      4.20000
    4986.600     10.47414      4.20000
    4990.800     10.46789      4.20000
    4995.000     10.46075      4.20000
    4999.200     10.46158      4.20000
    5003.400     10.46645      4.20000
    5007.600     10.47171      4.20000
    5011.800     10.47485      4.20000
    5016.000     10.47351      4.20000
    5020.200     10.46641      4.20000
    5024.400     10.45465      4.20000
    5028.600     10.44572      4.20000
    5032.800     10.44400      4.20000
    5037.000     10.44602      4.20000
    5041.200     10.44808      4.20000
    5045.400     10.44568      4.20000
    5049.600     10.43714      4.20000
    5053.800     10.42672      4.20000
    5058.000     10.41912      4.20000
    5062.200     10.41993      4.20000
    5066.400     10.43078      4.20000
    5070.600     10.44695      4.20000
    5074.800     10.46244      4.20000
    5079.000     10.46931      4.20000
    5083.200     10.46522      4.20000
    5087.400     10.45577      4.20000
    5091.600     10.44652      4.20000
    5095.800     10.44325      4.20000
    5100.000     10.44546      4.20000
    5104.200     10.44493      4.20000
    5108.400     10.44080      4.20000
    5112.600     10.43946      4.20000
    5116.800     10.44305      4.20000
    5121.000     10.45045      4.20000
    5125.200     10.45922      4.20000
    5129.400     10.46544      4.20000
    5133.600     10.46750      4.20000
    5137.800     10.46586      4.20000
    5142.000     10.46134      4.20000
    5146.200     10.45496      4.20000
    5150.400     10.44993      4.20000
    5154.600     10.45034      4.20000
    5158.800     10.45653      4.20000
    5163.000     10.46723      4.20000
    5167.200     10.47659      4.20000
    5171.400     10.47619      4.20000
    5175.600     10.47065      4.20000
    5179.800     10.46997      4.20000
    5184.000     10.47544      4.20000
    5188.200     10.48534      4.20000
    5192.400     10.49534      4.20000
    5196.600     10.49993      4.20000
    5200.800     10.49693      4.20000
    5205.000     10.48587      4.20000
    5209.200     10.47050      4.20000
    5213.400     10.45522      4.20000
    5217.600     10.44690      4.20000
    5221.800     10.45220      4.20000
    5226.000     10.46322      4.20000
    5230.200     10.46989      4.20000
    5234.400     10.46754      4.20000
    5238.600     10.45265      4.20000
    5242.800     10.43633      4.20000
    5247.000     10.43063      4.20000
    5251.200     10.43386      4.20000
    5255.400     10.44330      4.20000
    5259.600     10.45754      4.20000
    5263.800     10.47397      4.20000
    5268.000     10.48643      4.20000
    5272.200     10.48951      4.20000
    5276.400     10.48203      4.20000
    5280.600     10.46491      4.20000
    5284.800     10.44721      4.20000
    5289.000     10.43651      4.20000
    5293.200     10.43164      4.20000
    5297.400     10.43109      4.20000
    5301.600     10.43268      4.20000
    5305.800     10.43432      4.20000
    5310.000     10.43636      4.20000
    5314.200     10.43922      4.20000
    5318.400     10.44425      4.20000
    5322.600     10.45143      4.20000
    5326.800     10.45597      4.20000
    5331.000     10.45493      4.20000
    5335.200     10.45020      4.20000
    5339.400     10.44347      4.20000
    5343.600     10.43540      4.20000
    5347.800     10.42756      4.20000
    5352.000     10.42257      4.20000
    5356.200     10.42217      4.20000
    5360.400     10.42735      4.20000
    5364.600     10.43614      4.20000
    5368.800     10.44186      4.20000
    5373.000     10.44123      4.20000
    5377.200     10.43593      4.20000
    5381.400     10.42925      4.20000
    5385.600     10.42642      4.20000
    5389.800     10.43008      4.20000
    5394.000     10.44003      4.20000
    5398.200     10.45260      4.20000
    5402.400     10.46026      4.20000
    5406.600     10.45986      4.20000
    5410.800     10.45257      4.20000
    5415.000     10.44260      4.20000
    5419.200     10.43714      4.20000
    5423.400     10.43604      4.20000
    5427.600     10.43329      4.20000
    5431.800     10.42821      4.20000
    5436.000     10.42347      4.20000
    5440.200     10.42074      4.20000
    5444.400     10.42142      4.20000
    5448.600     10.42435      4.20000
    5452.800     10.42687      4.20000
    5457.000     10.42825      4.20000
    5461.200     10.42842      4.20000
    5465.400     10.42961      4.20000
    5469.600     10.43543      4.20000
    5473.800     10.44143      4.20000
    5478.000     10.44009      4.20000
    5482.200     10.43269      4.20000
    5486.400     10.42334      4.20000
    5490.600     10.41665      4.20000
    5494.800     10.41746      4.20000
    5499.000     10.42220      4.20000
    5503.200     10.42497      4.20000
    5507.400     10.42455      4.20000
    5511.600     10.42068      4.20000
    5515.800     10.41567      4.20000
    5520.000     10.41247      4.20000
    5524.200     10.41153      4.20000
    5528.400     10.41288      4.20000
    5532.600     10.41490      4.20000
    5536.800     10.41570      4.20000
    5541.000     10.41494      4.20000
    5545.200     10.41264      4.20000
    5549.400     10.40936      4.20000
    5553.600     10.40579      4.20000
    5557.800     10.40451      4.20000
    5562.000     10.40763      4.20000
    5566.200     10.41201      4.20000
    5570.400     10.41468      4.20000
    5574.600     10.41481      4.20000
    5578.800     10.41206      4.20000
    5583.000     10.41166      4.20000
    5587.200     10.41721      4.20000
    5591.400     10.42159      4.20000
    5595.600     10.41962      4.20000
    5599.800     10.41472      4.20000
    5604.000     10.41007      4.20000
    5608.200     10.40909      4.20000
    5612.400     10.41323      4.20000
    5616.600     10.41668      4.20000
    5620.800     10.41567      4.20000
    5625.000     10.41272      4.20000
    5629.200     10.40981      4.20000
    5633.400     10.40795      4.20000
    5637.600     10.40769      4.20000
    5641.800     10.40753      4.20000
    5646.000     10.40780      4.20000
    5650.200     10.41300      4.20000
    5654.400     10.42318      4.20000
    5658.600     10.43087      4.20000
    5662.800     10.43193      4.20000
    5667.000     10.42694      4.20000
    5671.200     10.41934      4.20000
    5675.400     10.41696      4.20000
    5679.600     10.42133      4.20000
    5683.800     10.42602      4.20000
    5688.000     10.42760      4.20000
    5692.200     10.42545      4.20000
    5696.400     10.42183      4.20000
    5700.600     10.42254      4.20000
    5704.800     10.42739      4.20000
    5709.000     10.43063      4.20000
    5713.200     10.42989      4.20000
    5717.400     10.42528      4.20000
    5721.600     10.41873      4.20000
    5725.800     10.41391      4.20000
    5730.000     10.41121      4.20000
    5734.200     10.40861      4.20000
    5738.400     10.40689      4.20000
    5742.600     10.40838      4.20000
    5746.800     10.41219      4.20000
    5751.000     10.41580      4.20000
    5755.200     10.41825      4.20000
    5759.400     10.41929      4.20000
    5763.600     10.41915      4.20000
    5767.800     10.41823      4.20000
    5772.000     10.41784      4.20000
    5776.200     10.41978      4.20000
    5780.400     10.42166      4.20000
    5784.600     10.41966      4.20000
    5788.800     10.41596      4.20000
    5793.000     10.41432      4.20000
    5797.200     10.41406      4.20000
    5801.400     10.41354      4.20000
    5805.600     10.41251      4.20000
    5809.800     10.41084      4.20000
    5814.000     10.40861      4.20000
    5818.200     10.40615      4.20000
    5822.400     10.40274      4.20000
    5826.600     10.39770      4.20000
    5830.800     10.39291      4.20000
    5835.000     10.39031      4.20000
    5839.200     10.39103      4.20000
    5843.400     10.39574      4.20000
    5847.600     10.40316      4.20000
    5851.800     10.41177      4.20000
    5856.000     10.41652      4.20000
    5860.200     10.41329      4.20000
    5864.400     10.40654      4.20000
    5868.600     10.40086      4.20000
    5872.800     10.39826      4.20000
    5877.000     10.40040      4.20000
    5881.200     10.40925      4.20000
    5885.400     10.42476      4.20000
    5889.600     10.43865      4.20000
    5893.800     10.44398      4.20000
    5898.000     10.44041      4.20000
    5902.200     10.42951      4.20000
    5906.400     10.41756      4.20000
    5910.600     10.40958      4.20000
    5914.800     10.40602      4.20000
    5919.000     10.40645      4.20000
    5923.200     10.40822      4.20000
    5927.400     10.40915      4.20000
    5931.600     10.40881      4.20000
    5935.800     10.40742      4.20000
    5940.000     10.40674      4.20000
    5944.200     10.40737      4.20000
    5948.400     10.40753      4.20000
    5952.600     10.40645      4.20000
    5956.800     10.40488      4.20000
    5961.000     10.40371      4.20000
    5965.200     10.40410      4.20000
    5969.400     10.40639      4.20000
    5973.600     10.40975      4.20000
    5977.800     10.41325      4.20000
    5982.000     10.41604      4.20000
    5986.200     10.41726      4.20000
    5990.400     10.41597      4.20000
    5994.600     10.41334      4.20000
    5998.800     10.41264      4.20000
    6003.000     10.41403      4.20000
    6007.200     10.41454      4.20000
    6011.400     10.41480      4.20000
    6015.600     10.41845      4.20000
    6019.800     10.42357      4.20000
    6024.000     10.42437      4.20000
    6028.200     10.42052      4.20000
    6032.400     10.41488      4.20000
    6036.600     10.41064      4.20000
    6040.800     10.41138      4.20000
    6045.000     10.41548      4.20000
    6049.200     10.41852      4.20000
    6053.400     10.41889      4.20000
    6057.600     10.41617      4.20000
    6061.800     10.41219      4.20000
    6066.000     10.40976      4.20000
    6070.200     10.40984      4.20000
    6074.400     10.41268      4.20000
    6078.600     10.41646      4.20000
    6082.800     10.41865      4.20000
    6087.000     10.41915      4.20000
    6091.200     10.41849      4.20000
    6095.400     10.41802      4.20000
    6099.600     10.41936      4.20000
    6103.800     10.42149      4.20000
    6108.000     10.42306      4.20000
    6112.200     10.42327      4.20000
    6116.400     10.42147      4.20000
    6120.600     10.42057      4.20000
    6124.800     10.42350      4.20000
    6129.000     10.43107      4.20000
    6133.200     10.44368      4.20000
    6137.400     10.45479      4.20000
    6141.600     10.45777      4.20000
    6145.800     10.45412      4.20000
    6150.000     10.44602      4.20000
    6154.200     10.43857      4.20000
    6158.400     10.43638      4.20000
    6162.600     10.43546      4.20000
    6166.800     10.43229      4.20000
    6171.000     10.42893      4.20000
    6175.200     10.42689      4.20000
    6179.400     10.42648      4.20000
    6183.600     10.42770      4.20000
    6187.800     10.42846      4.20000
    6192.000     10.42723      4.20000
    6196.200     10.42449      4.20000
    6200.400     10.42118      4.20000
    6204.600     10.41990      4.20000
    6208.800     10.42182      4.20000
    6213.000     10.42344      4.20000
    6217.200     10.42310      4.20000
    6221.400     10.42403      4.20000
    6225.600     10.42780      4.20000
    6229.800     10.43241      4.20000
    6234.000     10.43691      4.20000
    6238.200     10.44260      4.20000
    6242.400     10.44869      4.20000
    6246.600     10.45072      4.20000
    6250.800     10.44745      4.20000
    6255.000     10.44263      4.20000
    6259.200     10.43851      4.20000
    6263.400     10.43508      4.20000
    6267.600     10.43354      4.20000
    6271.800     10.43654      4.20000
    6276.000     10.42932      4.20000
    6280.200     10.42652      4.20000
    6284.400     10.43146      4.20000
    6288.600     10.43691      4.20000
    6292.800     10.44211      4.20000
    6297.000     10.44832      4.20000
    6301.200     10.45227      4.20000
    6305.400     10.45043      4.20000
    6309.600     10.44840      4.20000
    6313.800     10.44715      4.20000
    6318.000     10.44594      4.20000
    6322.200     10.44280      4.20000
    6326.400     10.43897      4.20000
    6330.600     10.43754      4.20000
    6334.800     10.43862      4.20000
    6339.000     10.44095      4.20000
    6343.200     10.44220      4.20000
    6347.400     10.43931      4.20000
    6351.600     10.43473      4.20000
    6355.800     10.43328      4.20000
    6360.000     10.43477      4.20000
    6364.200     10.43732      4.20000
    6368.400     10.43901      4.20000
    6372.600     10.43765      4.20000
    6376.800     10.43560      4.20000
    6381.000     10.43664      4.20000
    6385.200     10.43937      4.20000
    6389.400     10.44115      4.20000
    6393.600     10.44230      4.20000
    6397.800     10.44375      4.20000
    6402.000     10.44430      4.20000
    6406.200     10.44250      4.20000
    6410.400     10.44053      4.20000
    6414.600     10.44091      4.20000
    6418.800     10.44222      4.20000
    6423.000     10.44264      4.20000
    6427.200     10.44254      4.20000
    6431.400     10.44244      4.20000
    6435.600     10.44047      4.20000
    6439.800     10.43510      4.20000
    6444.000     10.43017      4.20000
    6448.200     10.42910      4.20000
    6452.400     10.43067      4.20000
    6456.600     10.43355      4.20000
    6460.800     10.43618      4.20000
    6465.000     10.43716      4.20000
    6469.200     10.43667      4.20000
    6473.400     10.43537      4.20000
    6477.600     10.43485      4.20000
    6481.800     10.43673      4.20000
    6486.000     10.44442      4.20000
    6490.200     10.45833      4.20000
    6494.400     10.46692      4.20000
    6498.600     10.46865      4.20000
    6502.800     10.45764      4.20000
    6507.000     10.45039      4.20000
    6511.200     10.45215      4.20000
    6515.400     10.45983      4.20000
    6519.600     10.46595      4.20000
    6523.800     10.46867      4.20000
    6528.000     10.47323      4.20000
    6532.200     10.48341      4.20000
    6536.400     10.49985      4.20000
    6540.600     10.52396      4.20000
    6544.800     10.55780      4.20000
    6549.000     10.60636      4.20000
    6553.200     10.68106      4.20000
    6557.400     10.77169      4.20000
    6561.600     10.82705      4.20000
    6565.800     10.80861      4.20000
    6570.000     10.73090      4.20000
    6574.200     10.63977      4.20000
    6578.400     10.57284      4.20000
    6582.600     10.53270      4.20000
    6586.800     10.50719      4.20000
    6591.000     10.49045      4.20000
    6595.200     10.47836      4.20000
    6599.400     10.46844      4.20000
    6603.600     10.46114      4.20000
    6607.800     10.45652      4.20000
    6612.000     10.45283      4.20000
    6616.200     10.44831      4.20000
    6620.400     10.44342      4.20000
    6624.600     10.44018      4.20000
    6628.800     10.44006      4.20000
    6633.000     10.44121      4.20000
    6637.200     10.43996      4.20000
    6641.400     10.43660      4.20000
    6645.600     10.43370      4.20000
    6649.800     10.43173      4.20000
    6654.000     10.43017      4.20000
    6658.200     10.42912      4.20000
    6662.400     10.42875      4.20000
    6666.600     10.42864      4.20000
    6670.800     10.42883      4.20000
    6675.000     10.42909      4.20000
    6679.200     10.42773      4.20000
    6683.400     10.42499      4.20000
    6687.600     10.42269      4.20000
    6691.800     10.42200      4.20000
    6696.000     10.42370      4.20000
    6700.200     10.42594      4.20000
    6704.400     10.42607      4.20000
    6708.600     10.42546      4.20000
    6712.800     10.42586      4.20000
    6717.000     10.42667      4.20000
    6721.200     10.42753      4.20000
    6725.400     10.42743      4.20000
    6729.600     10.42599      4.20000
    6733.800     10.42560      4.20000
    6738.000     10.42686      4.20000
    6742.200     10.42813      4.20000
    6746.400     10.42990      4.20000
    6750.600     10.43212      4.20000
    6754.800     10.43230      4.20000
    6759.000     10.43186      4.20000
    6763.200     10.43440      4.20000
    6767.400     10.43784      4.20000
    6771.600     10.43751      4.20000
    6775.800     10.43421      4.20000
    6780.000     10.43166      4.20000
    6784.200     10.43165      4.20000
    6788.400     10.43376      4.20000
    6792.600     10.43603      4.20000
    6796.800     10.43661      4.20000
    6801.000     10.43532      4.20000
    6805.200     10.43345      4.20000
    6809.400     10.43175      4.20000
    6813.600     10.43098      4.20000
    6817.800     10.43191      4.20000
    6822.000     10.43394      4.20000
    6826.200     10.43635      4.20000
    6830.400     10.43906      4.20000
    6834.600     10.44193      4.20000
    6838.800     10.44388      4.20000
    6843.000     10.44444      4.20000
    6847.200     10.44507      4.20000
    6851.400     10.44830      4.20000
    6855.600     10.46035      4.20000
    6859.800     10.45086      4.20000
    6864.000     10.45156      4.20000
    6868.200     10.45048      4.20000
    6872.400     10.45048      4.20000
    6876.600     10.44919      4.20000
    6880.800     10.44722      4.20000
    6885.000     10.44899      4.20000
    6889.200     10.45180      4.20000
    6893.400     10.45394      4.20000
    6897.600     10.45531      4.20000
    6901.800     10.45420      4.20000
    6906.000     10.45209      4.20000
    6910.200     10.45118      4.20000
    6914.400     10.45066      4.20000
    6918.600     10.45290      4.20000
    6922.800     10.45764      4.20000
    6927.000     10.46378      4.20000
    6931.200     10.47064      4.20000
    6935.400     10.47304      4.20000
    6939.600     10.47083      4.20000
    6943.800     10.46902      4.20000
    6948.000     10.46717      4.20000
    6952.200     10.46528      4.20000
    6956.400     10.46300      4.20000
    6960.600     10.45915      4.20000
    6964.800     10.45458      4.20000
    6969.000     10.45295      4.20000
    6973.200     10.45546      4.20000
    6977.400     10.45845      4.20000
    6981.600     10.45914      4.20000
    6985.800     10.45906      4.20000
    6990.000     10.46033      4.20000
    6994.200     10.46344      4.20000
    6998.400     10.46709      4.20000
    7002.600     10.46996      4.20000
    7006.800     10.47135      4.20000
    7011.000     10.47120      4.20000
    7015.200     10.47088      4.20000
    7019.400     10.47076      4.20000
    7023.600     10.46926      4.20000
    7027.800     10.46665      4.20000
    7032.000     10.46512      4.20000
    7036.200     10.46414      4.20000
    7040.400     10.46211      4.20000
    7044.600     10.45993      4.20000
    7048.800     10.45920      4.20000
    7053.000     10.46041      4.20000
    7057.200     10.46269      4.20000
    7061.400     10.46506      4.20000
    7065.600     10.46585      4.20000
    7069.800     10.46394      4.20000
    7074.000     10.46224      4.20000
    7078.200     10.46277      4.20000
    7082.400     10.46417      4.20000
    7086.600     10.46540      4.20000
    7090.800     10.46454      4.20000
    7095.000     10.46058      4.20000
    7099.200     10.45813      4.20000
    7103.400     10.45999      4.20000
    7107.600     10.46311      4.20000
    7111.800     10.46539      4.20000
    7116.000     10.46710      4.20000
    7120.200     10.46811      4.20000
    7124.400     10.46797      4.20000
    7128.600     10.46775      4.20000
    7132.800     10.46796      4.20000
    7137.000     10.46779      4.20000
    7141.200     10.46717      4.20000
    7145.400     10.46713      4.20000
    7149.600     10.46968      4.20000
    7153.800     10.47572      4.20000
    7158.000     10.48447      4.20000
    7162.200     10.48476      4.20000
    7166.400     10.47678      4.20000
    7170.600     10.47011      4.20000
    7174.800     10.47097      4.20000
    7179.000     10.47487      4.20000
    7183.200     10.47953      4.20000
    7187.400     10.48130      4.20000
    7191.600     10.47897      4.20000
    7195.800     10.47526      4.20000
    7200.000     10.47286      4.20000
    7204.200     10.47278      4.20000
    7208.400     10.47458      4.20000
    7212.600     10.47940      4.20000
    7216.800     10.48749      4.20000
    7221.000     10.48682      4.20000
    7225.200     10.48145      4.20000
    7229.400     10.47341      4.20000
    7233.600     10.47251      4.20000
    7237.800     10.47373      4.20000
    7242.000     10.47552      4.20000
    7246.200     10.47635      4.20000
    7250.400     10.47668      4.20000
    7254.600     10.47712      4.20000
    7258.800     10.47699      4.20000
    7263.000     10.47629      4.20000
    7267.200     10.47617      4.20000
    7271.400     10.47759      4.20000
    7275.600     10.48109      4.20000
    7279.800     10.48498      4.20000
    7284.000     10.48705      4.20000
    7288.200     10.48725      4.20000
    7292.400     10.48560      4.20000
    7296.600     10.48501      4.20000
    7300.800     10.48468      4.20000
    7305.000     10.48524      4.20000
    7309.200     10.49099      4.20000
    7313.400     10.49167      4.20000
    7317.600     10.49027      4.20000
    7321.800     10.48821      4.20000
    7326.000     10.49175      4.20000
    7330.200     10.49578      4.20000
    7334.400     10.49478      4.20000
    7338.600     10.48951      4.20000
    7342.800     10.48958      4.20000
    7347.000     10.49259      4.20000
    7351.200     10.49419      4.20000
    7355.400     10.49504      4.20000
    7359.600     10.49561      4.20000
    7363.800     10.49462      4.20000
    7368.000     10.49230      4.20000
    7372.200     10.49138      4.20000
    7376.400     10.49330      4.20000
    7380.600     10.49675      4.20000
    7384.800     10.50034      4.20000
    7389.000     10.50237      4.20000
    7393.200     10.50262      4.20000
    7397.400     10.50299      4.20000
    7401.600     10.50353      4.20000
    7405.800     10.50392      4.20000
    7410.000     10.50480      4.20000
    7414.200     10.50700      4.20000
    7418.400     10.50921      4.20000
    7422.600     10.50705      4.20000
    7426.800     10.50064      4.20000
    7431.000     10.49505      4.20000
    7435.200     10.49321      4.20000
    7439.400     10.49591      4.20000
    7443.600     10.50069      4.20000
    7447.800     10.50228      4.20000
    7452.000     10.50069      4.20000
    7456.200     10.49954      4.20000
    7460.400     10.49874      4.20000
    7464.600     10.49632      4.20000
    7468.800     10.49283      4.20000
    7473.000     10.49093      4.20000
    7477.200     10.49135      4.20000
    7481.400     10.49302      4.20000
    7485.600     10.49518      4.20000
    7489.800     10.49694      4.20000
    7494.000     10.49370      4.20000
    7498.200     10.49398      4.20000
    7502.400     10.49380      4.20000
    7506.600     10.49761      4.20000
    7510.800     10.50351      4.20000
    7515.000     10.50439      4.20000
    7519.200     10.50103      4.20000
    7523.400     10.49942      4.20000
    7527.600     10.49870      4.20000
    7531.800     10.49569      4.20000
    7536.000     10.49275      4.20000
    7540.200     10.49239      4.20000
    7544.400     10.49296      4.20000
    7548.600     10.49437      4.20000
    7552.800     10.49646      4.20000
    7557.000     10.49502      4.20000
    7561.200     10.49162      4.20000
    7565.400     10.49167      4.20000
    7569.600     10.49458      4.20000
    7573.800     10.49811      4.20000
    7578.000     10.50616      4.20000
    7582.200     10.50132      4.20000
    7586.400     10.49764      4.20000
    7590.600     10.50170      4.20000
    7594.800     10.51488      4.20000
    7599.000     10.53174      4.20000
    7603.200     10.52612      4.20000
    7607.400     10.49514      4.20000
    7611.600     10.46921      4.20000
    7615.800     10.46803      4.20000
    7620.000     10.48744      4.20000
    7624.200     10.50238      4.20000
    7628.400     10.49851      4.20000
    7632.600     10.48714      4.20000
    7636.800     10.48157      4.20000
    7641.000     10.48176      4.20000
    7645.200     10.48373      4.20000
    7649.400     10.48765      4.20000
    7653.600     10.49372      4.20000
    7657.800     10.49908      4.20000
    7662.000     10.50090      4.20000
    7666.200     10.49905      4.20000
    7670.400     10.49770      4.20000
    7674.600     10.49836      4.20000
    7678.800     10.49908      4.20000
    7683.000     10.49865      4.20000
    7687.200     10.51188      4.20000
    7691.400     10.51777      4.20000
    7695.600     10.51776      4.20000
    7699.800     10.51059      4.20000
    7704.000     10.50895      4.20000
    7708.200     10.51222      4.20000
    7712.400     10.51426      4.20000
    7716.600     10.51131      4.20000
    7720.800     10.50548      4.20000
    7725.000     10.50192      4.20000
    7729.200     10.50319      4.20000
    7733.400     10.50571      4.20000
    7737.600     10.50627      4.20000
    7741.800     10.50677      4.20000
    7746.000     10.50808      4.20000
    7750.200     10.50844      4.20000
    7754.400     10.50680      4.20000
    7758.600     10.50327      4.20000
    7762.800     10.50342      4.20000
    7767.000     10.51433      4.20000
    7771.200     10.52876      4.20000
    7775.400     10.53181      4.20000
    7779.600     10.52217      4.20000
    7783.800     10.51050      4.20000
    7788.000     10.50613      4.20000
    7792.200     10.50823      4.20000
    7796.400     10.50855      4.20000
    7800.600     10.50458      4.20000
    7804.800     10.50137      4.20000
    7809.000     10.50049      4.20000
    7813.200     10.49803      4.20000
    7817.400     10.49519      4.20000
    7821.600     10.49748      4.20000
    7825.800     10.50391      4.20000
    7830.000     10.50881      4.20000
    7834.200     10.50827      4.20000
    7838.400     10.50466      4.20000
    7842.600     10.50339      4.20000
    7846.800     10.50489      4.20000
    7851.000     10.50445      4.20000
    7855.200     10.50182      4.20000
    7859.400     10.50191      4.20000
    7863.600     10.50400      4.20000
    7867.800     10.50620      4.20000
    7872.000     10.50986      4.20000
    7876.200     10.51256      4.20000
    7880.400     10.51200      4.20000
    7884.600     10.51000      4.20000
    7888.800     10.51169      4.20000
    7893.000     10.51705      4.20000
    7897.200     10.51785      4.20000
    7901.400     10.51428      4.20000
    7905.600     10.51350      4.20000
    7909.800     10.51457      4.20000
    7914.000     10.51583      4.20000
    7918.200     10.51752      4.20000
    7922.400     10.51951      4.20000
    7926.600     10.52157      4.20000
    7930.800     10.52326      4.20000
    7935.000     10.52322      4.20000
    7939.200     10.52295      4.20000
    7943.400     10.52366      4.20000
    7947.600     10.52140      4.20000
    7951.800     10.51614      4.20000
    7956.000     10.51226      4.20000
    7960.200     10.51128      4.20000
    7964.400     10.51203      4.20000
    7968.600     10.51334      4.20000
    7972.800     10.51329      4.20000
    7977.000     10.51050      4.20000
    7981.200     10.50817      4.20000
    7985.400     10.50889      4.20000
    7989.600     10.51233      4.20000
    7993.800     10.51875      4.20000
    7998.000     10.52393      4.20000
    8002.200     10.52229      4.20000
    8006.400     10.51795      4.20000
    8010.600     10.51631      4.20000
    8014.800     10.51688      4.20000
    8019.000     10.51948      4.20000
    8023.200     10.52203      4.20000
    8027.400     10.52054      4.20000
    8031.600     10.51777      4.20000
    8035.800     10.51902      4.20000
    8040.000     10.52270      4.20000
    8044.200     10.52407      4.20000
    8048.400     10.52092      4.20000
    8052.600     10.51617      4.20000
    8056.800     10.51503      4.20000
    8061.000     10.51741      4.20000
    8065.200     10.51895      4.20000
    8069.400     10.51820      4.20000
    8073.600     10.51839      4.20000
    8077.800     10.52157      4.20000
    8082.000     10.52673      4.20000
    8086.200     10.53025      4.20000
    8090.400     10.53017      4.20000
    8094.600     10.52931      4.20000
    8098.800     10.52856      4.20000
    8103.000     10.52723      4.20000
    8107.200     10.52774      4.20000
    8111.400     10.52960      4.20000
    8115.600     10.53083      4.20000
    8119.800     10.53295      4.20000
    8124.000     10.53863      4.20000
    8128.200     10.54324      4.20000
    8132.400     10.53984      4.20000
    8136.600     10.53618      4.20000
    8140.800     10.53281      4.20000
    8145.000     10.53040      4.20000
    8149.200     10.52982      4.20000
    8153.400     10.53169      4.20000
    8157.600     10.53357      4.20000
    8161.800     10.53453      4.20000
    8166.000     10.53630      4.20000
    8170.200     10.54063      4.20000
    8174.400     10.54299      4.20000
    8178.600     10.54744      4.20000
    8182.800     10.54977      4.20000
    8187.000     10.54960      4.20000
    8191.200     10.55041      4.20000
    8195.400     10.55182      4.20000
    8199.600     10.55022      4.20000
    8203.800     10.55168      4.20000
    8208.000     10.55705      4.20000
    8212.200     10.55803      4.20000
    8216.400     10.54765      4.20000
    8220.600     10.54270      4.20000
    8224.800     10.54698      4.20000
    8229.000     10.54841      4.20000
    8233.200     10.54338      4.20000
    8237.400     10.53740      4.20000
    8241.600     10.54095      4.20000
    8245.800     10.55254      4.20000
    8250.000     10.55084      4.20000
    8254.200     10.54774      4.20000
    8258.400     10.54946      4.20000
    8262.600     10.55176      4.20000
    8266.800     10.54972      4.20000
    8271.000     10.54964      4.20000
    8275.200     10.54646      4.20000
    8279.400     10.54244      4.20000
    8283.600     10.54174      4.20000
    8287.800     10.54211      4.20000
    8292.000     10.54677      4.20000
    8296.200     10.54648      4.20000
    8300.400     10.55074      4.20000
    8304.600     10.55571      4.20000
    8308.800     10.55948      4.20000
    8313.000     10.55838      4.20000
    8317.200     10.55884      4.20000
    8321.400     10.56357      4.20000
    8325.600     10.57405      4.20000
    8329.800     10.57693      4.20000
    8334.000     10.57790      4.20000
    8338.200     10.57035      4.20000
    8342.400     10.55983      4.20000
    8346.600     10.55707      4.20000
    8350.800     10.55555      4.20000
    8355.000     10.55585      4.20000
    8359.200     10.55649      4.20000
    8363.400     10.55525      4.20000
    8367.600     10.55185      4.20000
    8371.800     10.54999      4.20000
    8376.000     10.55157      4.20000
    8380.200     10.55416      4.20000
    8384.400     10.55594      4.20000
    8388.600     10.55658      4.20000
    8392.800     10.55523      4.20000
    8397.000     10.55379      4.20000
    8401.200     10.55261      4.20000
    8405.400     10.55003      4.20000
    8409.600     10.54875      4.20000
    8413.800     10.55069      4.20000
    8418.000     10.55200      4.20000
    8422.200     10.55091      4.20000
    8426.400     10.55069      4.20000
    8430.600     10.55410      4.20000
    8434.800     10.56015      4.20000
    8439.000     10.56560      4.20000
    8443.200     10.56785      4.20000
    8447.400     10.56554      4.20000
    8451.600     10.55961      4.20000
    8455.800     10.55446      4.20000
    8460.000     10.55665      4.20000
    8464.200     10.56464      4.20000
    8468.400     10.56554      4.20000
    8472.600     10.55681      4.20000
    8476.800     10.54908      4.20000
    8481.000     10.54710      4.20000
    8485.200     10.55043      4.20000
    8489.400     10.56401      4.20000
    8493.600     10.58771      4.20000
    8497.800     10.60396      4.20000
    8502.000     10.59965      4.20000
    8506.200     10.58320      4.20000
    8510.400     10.56807      4.20000
    8514.600     10.55589      4.20000
    8518.800     10.54555      4.20000
    8523.000     10.54358      4.20000
    8527.200     10.55378      4.20000
    8531.400     10.57190      4.20000
    8535.600     10.59806      4.20000
    8539.800     10.62810      4.20000
    8544.000     10.63941      4.20000
    8548.200     10.61929      4.20000
    8552.400     10.58685      4.20000
    8556.600     10.56078      4.20000
    8560.800     10.54386      4.20000
    8565.000     10.53709      4.20000
    8569.200     10.53835      4.20000
    8573.400     10.54093      4.20000
    8577.600     10.54342      4.20000
    8581.800     10.55288      4.20000
    8586.000     10.57298      4.20000
    8590.200     10.59628      4.20000
    8594.400     10.61381      4.20000
    8598.600     10.61841      4.20000
    8602.800     10.60574      4.20000
    8607.000     10.58119      4.20000
    8611.200     10.55691      4.20000
    8615.400     10.54221      4.20000
    8619.600     10.53443      4.20000
    8623.800     10.52710      4.20000
    8628.000     10.52329      4.20000
    8632.200     10.52482      4.20000
    8636.400     10.52777      4.20000
    8640.600     10.53339      4.20000
    8644.800     10.54727      4.20000
    8649.000     10.56887      4.20000
    8653.200     10.59918      4.20000
    8657.400     10.64337      4.20000
    8661.600     10.68367      4.20000
    8665.800     10.68635      4.20000
    8670.000     10.65391      4.20000
    8674.200     10.61728      4.20000
    8678.400     10.58931      4.20000
    8682.600     10.56901      4.20000
    8686.800     10.55573      4.20000
    8691.000     10.54519      4.20000
    8695.200     10.53542      4.20000
    8699.400     10.52946      4.20000
    8703.600     10.52816      4.20000
    8707.800     10.52882      4.20000
    8712.000     10.52999      4.20000
    8716.200     10.53197      4.20000
    8720.400     10.53509      4.20000
    8724.600     10.54184      4.20000
    8728.800     10.55525      4.20000
    8733.000     10.57617      4.20000
    8737.200     10.60566      4.20000
    8741.400     10.64252      4.20000
    8745.600     10.67746      4.20000
    8749.800     10.69081      4.20000
    8754.000     10.67260      4.20000
    8758.200     10.63867      4.20000
    8762.400     10.60700      4.20000
    8766.600     10.58201      4.20000
    8770.800     10.56275      4.20000
    8775.000     10.54860      4.20000
    8779.200     10.53910      4.20000
    8783.400     10.53431      4.20000
    8787.600     10.53185      4.20000
    8791.800     10.52853      4.20000
    8796.000     10.52690      4.20000
    8800.200     10.52932      4.20000
    8804.400     10.53237      4.20000
    8808.600     10.53237      4.20000
    8812.800     10.52805      4.20000
    8817.000     10.52372      4.20000
    8821.200     10.52660      4.20000
    8825.400     10.53444      4.20000
    8829.600     10.54083      4.20000
    8833.800     10.54710      4.20000
    8838.000     10.55709      4.20000
    8842.200     10.57360      4.20000
    8846.400     10.60159      4.20000
    8850.600     10.64274      4.20000
    8854.800     10.69134      4.20000
    8859.000     10.73063      4.20000
    8863.200     10.73909      4.20000
    8867.400     10.71446      4.20000
    8871.600     10.67224      4.20000
    8875.800     10.62836      4.20000
    8880.000     10.59624      4.20000
    8884.200     10.57902      4.20000
    8888.400     10.56879      4.20000
    8892.600     10.55636      4.20000
    8896.800     10.54232      4.20000
    8901.000     10.53663      4.20000
    8905.200     10.54174      4.20000
    8909.400     10.54556      4.20000
    8913.600     10.54162      4.20000
    8917.800     10.53886      4.20000
    8922.000     10.54315      4.20000
    8926.200     10.54727      4.20000
    8930.400     10.54602      4.20000
    8934.600     10.54497      4.20000
    8938.800     10.54830      4.20000
    8943.000     10.55489      4.20000
    8947.200     10.56241      4.20000
    8951.400     10.55845      4.20000
    8955.600     10.55939      4.20000
    8959.800     10.56889      4.20000
    8964.000     10.58094      4.20000
    8968.200     10.58763      4.20000
    8972.400     10.58678      4.20000
    8976.600     10.58734      4.20000
    8980.800     10.59767      4.20000
    8985.000     10.60451      4.20000
    8989.200     10.61096      4.20000
    8993.400     10.62237      4.20000
    8997.600     10.63391      4.20000
    9001.800     10.66350      4.20000
    9006.000     10.71266      4.20000
    9010.200     10.76223      4.20000
    9014.400     10.78747      4.20000
    9018.600     10.76723      4.20000
    9022.800     10.71400      4.20000
    9027.000     10.65312      4.20000
    9031.200     10.61231      4.20000
    9035.400     10.60725      4.20000
    9039.600     10.61131      4.20000
    9043.800     10.59935      4.20000
    9048.000     10.58930      4.20000
    9052.200     10.58458      4.20000
    9056.400     10.60664      4.20000
    9060.600     10.61668      4.20000
    9064.800     10.61761      4.20000
    9069.000     10.61710      4.20000
    9073.200     10.61324      4.20000
    9077.400     10.60999      4.20000
    9081.600     10.61624      4.20000
    9085.800     10.62209      4.20000
    9090.000     10.62761      4.20000
    9094.200     10.62103      4.20000
    9098.400     10.61066      4.20000
    9102.600     10.60296      4.20000
    9106.800     10.59841      4.20000
    9111.000     10.59674      4.20000
    9115.200     10.59774      4.20000
    9119.400     10.60017      4.20000
    9123.600     10.60093      4.20000
    9127.800     10.60466      4.20000
    9132.000     10.60627      4.20000
    9136.200     10.60486      4.20000
    9140.400     10.58783      4.20000
    9144.600     10.58687      4.20000
    9148.800     10.59263      4.20000
    9153.000     10.60042      4.20000
    9157.200     10.60429      4.20000
    9161.400     10.60316      4.20000
    9165.600     10.60583      4.20000
    9169.800     10.61054      4.20000
    9174.000     10.61452      4.20000
    9178.200     10.61221      4.20000
    9182.400     10.61150      4.20000
    9186.600     10.61253      4.20000
    9190.800     10.62179      4.20000
    9195.000     10.62671      4.20000
    9199.200     10.62868      4.20000
    9203.400     10.63010      4.20000
    9207.600     10.64767      4.20000
    9211.800     10.67225      4.20000
    9216.000     10.70711      4.20000
    9220.200     10.75651      4.20000
    9224.400     10.83240      4.20000
    9228.600     10.87125      4.20000
    9232.800     10.85649      4.20000
    9237.000     10.75483      4.20000
    9241.200     10.71692      4.20000
    9245.400     10.65611      4.20000
    9249.600     10.65159      4.20000
    9253.800     10.65056      4.20000
    9258.000     10.64672      4.20000
    9262.200     10.63761      4.20000
    9266.400     10.63066      4.20000
    9270.600     10.62729      4.20000
    9274.800     10.62007      4.20000
    9279.000     10.62281      4.20000
    9283.200     10.62519      4.20000
    9287.400     10.62312      4.20000
    9291.600     10.62147      4.20000
    9295.800     10.61938      4.20000
    9300.000     10.61838      4.20000
    9304.200     10.61683      4.20000
    9308.400     10.61728      4.20000
    9312.600     10.62435      4.20000
    9316.800     10.63389      4.20000
    9321.000     10.63480      4.20000
    9325.200     10.62762      4.20000
    9329.400     10.61864      4.20000
    9333.600     10.61306      4.20000
    9337.800     10.61892      4.20000
    9342.000     10.62725      4.20000
    9346.200     10.61837      4.20000
    9350.400     10.60238      4.20000
    9354.600     10.59818      4.20000
    9358.800     10.60376      4.20000
    9363.000     10.61120      4.20000
    9367.200     10.61302      4.20000
    9371.400     10.60759      4.20000
    9375.600     10.60934      4.20000
    9379.800     10.61830      4.20000
    9384.000     10.61622      4.20000
    9388.200     10.60977      4.20000
    9392.400     10.61675      4.20000
    9396.600     10.63515      4.20000
    9400.800     10.65135      4.20000
    9405.000     10.65473      4.20000
    9409.200     10.65414      4.20000
    9413.400     10.64848      4.20000
    9417.600     10.63969      4.20000
    9421.800     10.62515      4.20000
    9426.000     10.62508      4.20000
    9430.200     10.63905      4.20000
    9434.400     10.64620      4.20000
    9438.600     10.64143      4.20000
    9442.800     10.63279      4.20000
    9447.000     10.62496      4.20000
    9451.200     10.61998      4.20000
    9455.400     10.63235      4.20000
    9459.600     10.64204      4.20000
    9463.800     10.64560      4.20000
    9468.000     10.64223      4.20000
    9472.200     10.64573      4.20000
    9476.400     10.64240      4.20000
    9480.600     10.63136      4.20000
    9484.800     10.63035      4.20000
    9489.000     10.63638      4.20000
    9493.200     10.64144      4.20000
    9497.400     10.64282      4.20000
    9501.600     10.64142      4.20000
    9505.800     10.63820      4.20000
    9510.000     10.64173      4.20000
    9514.200     10.65391      4.20000
    9518.400     10.66380      4.20000
    9522.600     10.66491      4.20000
    9526.800     10.66533      4.20000
    9531.000     10.67995      4.20000
    9535.200     10.71725      4.20000
    9539.400     10.78698      4.20000
    9543.600     10.84099      4.20000
    9547.800     10.85061      4.20000
    9552.000     10.82632      4.20000
    9556.200     10.78008      4.20000
    9560.400     10.72547      4.20000
    9564.600     10.68948      4.20000
    9568.800     10.66343      4.20000
    9573.000     10.65853      4.20000
    9577.200     10.64840      4.20000
    9581.400     10.64810      4.20000
    9585.600     10.65486      4.20000
    9589.800     10.65921      4.20000
    9594.000     10.65757      4.20000
    9598.200     10.66582      4.20000
    9602.400     10.67434      4.20000
    9606.600     10.67174      4.20000
    9610.800     10.66561      4.20000
    9615.000     10.66554      4.20000
    9619.200     10.66617      4.20000
    9623.400     10.66644      4.20000
    9627.600     10.66590      4.20000
    9631.800     10.66365      4.20000
    9636.000     10.66543      4.20000
    9640.200     10.66480      4.20000
    9644.400     10.66283      4.20000
    9648.600     10.65840      4.20000
    9652.800     10.66153      4.20000
    9657.000     10.67097      4.20000
    9661.200     10.66953      4.20000
    9665.400     10.66271      4.20000
    9669.600     10.66517      4.20000
    9673.800     10.66491      4.20000
    9678.000     10.65281      4.20000
    9682.200     10.64880      4.20000
    9686.400     10.65290      4.20000
    9690.600     10.65981      4.20000
    9694.800     10.65531      4.20000
    9699.000     10.65406      4.20000
    9703.200     10.65373      4.20000
    9707.400     10.65085      4.20000
    9711.600     10.64948      4.20000
    9715.800     10.65314      4.20000
    9720.000     10.65544      4.20000
    9724.200     10.64331      4.20000
    9728.400     10.63847      4.20000
    9732.600     10.64539      4.20000
    9736.800     10.65317      4.20000
    9741.000     10.65821      4.20000
    9745.200     10.65444      4.20000
    9749.400     10.65604      4.20000
    9753.600     10.65180      4.20000
    9757.800     10.64157      4.20000
    9762.000     10.64452      4.20000
    9766.200     10.64403      4.20000
    9770.400     10.65448      4.20000
    9774.600     10.65200      4.20000
    9778.800     10.63960      4.20000
    9783.000     10.63822      4.20000
    9787.200     10.64333      4.20000
    9791.400     10.64630      4.20000
    9795.600     10.64599      4.20000
    9799.800     10.65051      4.20000
    9804.000     10.65666      4.20000
    9808.200     10.64865      4.20000
    9812.400     10.64136      4.20000
    9816.600     10.63086      4.20000
    9820.800     10.61883      4.20000
    9825.000     10.61049      4.20000
    9829.200     10.60765      4.20000
    9833.400     10.61264      4.20000
    9837.600     10.61967      4.20000
    9841.800     10.61542      4.20000
    9846.000     10.60805      4.20000
    9850.200     10.61317      4.20000
    9854.400     10.62319      4.20000
    9858.600     10.62428      4.20000
    9862.800     10.62593      4.20000
    9867.000     10.63348      4.20000
    9871.200     10.62831      4.20000
    9875.400     10.60926      4.20000
    9879.600     10.59976      4.20000
    9883.800     10.60929      4.20000
    9888.000     10.61992      4.20000
    9892.200     10.62077      4.20000
    9896.400     10.61320      4.20000
    9900.600     10.60354      4.20000
    9904.800     10.59778      4.20000
    9909.000     10.60881      4.20000
    9913.200     10.62887      4.20000
    9917.400     10.63351      4.20000
    9921.600     10.61878      4.20000
    9925.800     10.60273      4.20000
    9930.000     10.60533      4.20000
    9934.200     10.62373      4.20000
    9938.400     10.63258      4.20000
    9942.600     10.61886      4.20000
    9946.800     10.59888      4.20000
    9951.000     10.60076      4.20000
    9955.200     10.62722      4.20000
    9959.400     10.64684      4.20000
    9963.600     10.64163      4.20000
    9967.800     10.62564      4.20000
    9972.000     10.61146      4.20000
    9976.200     10.60831      4.20000
    9980.400     10.61358      4.20000
    9984.600     10.61777      4.20000
    9988.800     10.61788      4.20000
    9993.000     10.61431      4.20000
    9997.200     10.61233      4.20000
   10001.400     10.62113      4.20000
   10005.600     10.63486      4.20000
   10009.800     10.63766      4.20000
   10014.000     10.63685      4.20000
   10018.200     10.63340      4.20000
   10022.400     10.62932      4.20000
   10026.600     10.62625      4.20000
   10030.800     10.63301      4.20000
   10035.000     10.65917      4.20000
   10039.200     10.72214      4.20000
   10043.400     10.79923      4.20000
   10047.600     10.82203      4.20000
   10051.800     10.82860      4.20000
   10056.000     10.80168      4.20000
   10060.200     10.75893      4.20000
   10064.400     10.71714      4.20000
   10068.600     10.69799      4.20000
   10072.800     10.69281      4.20000
   10077.000     10.68191      4.20000
   10081.200     10.66483      4.20000
   10085.400     10.63368      4.20000
   10089.600     10.62904      4.20000
   10093.800     10.64493      4.20000
   10098.000     10.62395      4.20000
   10102.200     10.61301      4.20000
   10106.400     10.63482      4.20000
   10110.600     10.64319      4.20000
   10114.800     10.63733      4.20000
   10119.000     10.63017      4.20000
   10123.200     10.62095      4.20000
   10127.400     10.62578      4.20000
   10131.600     10.63112      4.20000
   10135.800     10.61260      4.20000
   10140.000     10.58469      4.20000
   10144.200     10.60020      4.20000
   10148.400     10.63238      4.20000
   10152.600     10.62709      4.20000
   10156.800     10.59248      4.20000
   10161.000     10.56840      4.20000
   10165.200     10.56597      4.20000
   10169.400     10.58791      4.20000
   10173.600     10.63441      4.20000
   10177.800     10.65175      4.20000
   10182.000     10.64794      4.20000
   10186.200     10.67021      4.20000
   10190.400     10.68063      4.20000
   10194.600     10.64124      4.20000
   10198.800     10.60504      4.20000
   10203.000     10.60509      4.20000
   10207.200     10.61199      4.20000
   10211.400     10.62031      4.20000
   10215.600     10.62199      4.20000
   10219.800     10.62772      4.20000
   10224.000     10.63962      4.20000
   10228.200     10.63876      4.20000
   10232.400     10.63604      4.20000
   10236.600     10.64868      4.20000
   10240.800     10.63067      4.20000
   10245.000     10.59629      4.20000
   10249.200     10.63615      4.20000
   10253.400     10.62705      4.20000
   10257.600     10.62790      4.20000
   10261.800     10.54673      4.20000
   10266.000     10.52411      4.20000
   10270.200     10.56557      4.20000
   10274.400     10.52185      4.20000
   10278.600     10.44713      4.20000
   10282.800     10.35683      4.20000
