# HR3454 from Hamuy,
# corrected for atmospheric absorption by ALG
#
    3000.000      7.27394      4.20000
    3004.200      7.11326      4.20000
    3008.400      6.93624      4.20000
    3012.600      6.76375      4.20000
    3016.800      6.61778      4.20000
    3021.000      6.49126      4.20000
    3025.200      6.37127      4.20000
    3029.400      6.25914      4.20000
    3033.600      6.15890      4.20000
    3037.800      6.06128      4.20000
    3042.000      5.95820      4.20000
    3046.200      5.85082      4.20000
    3050.400      5.74002      4.20000
    3054.600      5.65327      4.20000
    3058.800      5.61756      4.20000
    3063.000      5.59715      4.20000
    3067.200      5.54761      4.20000
    3071.400      5.47964      4.20000
    3075.600      5.41101      4.20000
    3079.800      5.34201      4.20000
    3084.000      5.27236      4.20000
    3088.200      5.20676      4.20000
    3092.400      5.14934      4.20000
    3096.600      5.09279      4.20000
    3100.800      5.03024      4.20000
    3105.000      4.97280      4.20000
    3109.200      4.92983      4.20000
    3113.400      4.89052      4.20000
    3117.600      4.84598      4.20000
    3121.800      4.80336      4.20000
    3126.000      4.76785      4.20000
    3130.200      4.73191      4.20000
    3134.400      4.69046      4.20000
    3138.600      4.64979      4.20000
    3142.800      4.61438      4.20000
    3147.000      4.58223      4.20000
    3151.200      4.55189      4.20000
    3155.400      4.52255      4.20000
    3159.600      4.49379      4.20000
    3163.800      4.46782      4.20000
    3168.000      4.44565      4.20000
    3172.200      4.42408      4.20000
    3176.400      4.40142      4.20000
    3180.600      4.37968      4.20000
    3184.800      4.36014      4.20000
    3189.000      4.34299      4.20000
    3193.200      4.32764      4.20000
    3197.400      4.31097      4.20000
    3201.600      4.29231      4.20000
    3205.800      4.27588      4.20000
    3210.000      4.26379      4.20000
    3214.200      4.25511      4.20000
    3218.400      4.24789      4.20000
    3222.600      4.23794      4.20000
    3226.800      4.22429      4.20000
    3231.000      4.21055      4.20000
    3235.200      4.19941      4.20000
    3239.400      4.19287      4.20000
    3243.600      4.18963      4.20000
    3247.800      4.18450      4.20000
    3252.000      4.17593      4.20000
    3256.200      4.16642      4.20000
    3260.400      4.15848      4.20000
    3264.600      4.15511      4.20000
    3268.800      4.15518      4.20000
    3273.000      4.15360      4.20000
    3277.200      4.14878      4.20000
    3281.400      4.14181      4.20000
    3285.600      4.13479      4.20000
    3289.800      4.13075      4.20000
    3294.000      4.12997      4.20000
    3298.200      4.13072      4.20000
    3302.400      4.13173      4.20000
    3306.600      4.13194      4.20000
    3310.800      4.13098      4.20000
    3315.000      4.12889      4.20000
    3319.200      4.12703      4.20000
    3323.400      4.12745      4.20000
    3327.600      4.12957      4.20000
    3331.800      4.13162      4.20000
    3336.000      4.13298      4.20000
    3340.200      4.13340      4.20000
    3344.400      4.13334      4.20000
    3348.600      4.13354      4.20000
    3352.800      4.13438      4.20000
    3357.000      4.13603      4.20000
    3361.200      4.13816      4.20000
    3365.400      4.14031      4.20000
    3369.600      4.14171      4.20000
    3373.800      4.14154      4.20000
    3378.000      4.14142      4.20000
    3382.200      4.14332      4.20000
    3386.400      4.14654      4.20000
    3390.600      4.14995      4.20000
    3394.800      4.15256      4.20000
    3399.000      4.15330      4.20000
    3403.200      4.15331      4.20000
    3407.400      4.15401      4.20000
    3411.600      4.15525      4.20000
    3415.800      4.15681      4.20000
    3420.000      4.15906      4.20000
    3424.200      4.16212      4.20000
    3428.400      4.16630      4.20000
    3432.600      4.17165      4.20000
    3436.800      4.17569      4.20000
    3441.000      4.17636      4.20000
    3445.200      4.17585      4.20000
    3449.400      4.17611      4.20000
    3453.600      4.17728      4.20000
    3457.800      4.17943      4.20000
    3462.000      4.18212      4.20000
    3466.200      4.18470      4.20000
    3470.400      4.18606      4.20000
    3474.600      4.18581      4.20000
    3478.800      4.18600      4.20000
    3483.000      4.18789      4.20000
    3487.200      4.19032      4.20000
    3491.400      4.19239      4.20000
    3495.600      4.19367      4.20000
    3499.800      4.19418      4.20000
    3504.000      4.19512      4.20000
    3508.200      4.19687      4.20000
    3512.400      4.19780      4.20000
    3516.600      4.19719      4.20000
    3520.800      4.19586      4.20000
    3525.000      4.19466      4.20000
    3529.200      4.19464      4.20000
    3533.400      4.19593      4.20000
    3537.600      4.19703      4.20000
    3541.800      4.19749      4.20000
    3546.000      4.19843      4.20000
    3550.200      4.19964      4.20000
    3554.400      4.19935      4.20000
    3558.600      4.19746      4.20000
    3562.800      4.19537      4.20000
    3567.000      4.19443      4.20000
    3571.200      4.19609      4.20000
    3575.400      4.19965      4.20000
    3579.600      4.20244      4.20000
    3583.800      4.20343      4.20000
    3588.000      4.20300      4.20000
    3592.200      4.20148      4.20000
    3596.400      4.19923      4.20000
    3600.600      4.19701      4.20000
    3604.800      4.19571      4.20000
    3609.000      4.19556      4.20000
    3613.200      4.19642      4.20000
    3617.400      4.19764      4.20000
    3621.600      4.19836      4.20000
    3625.800      4.19821      4.20000
    3630.000      4.19713      4.20000
    3634.200      4.19563      4.20000
    3638.400      4.19456      4.20000
    3642.600      4.19358      4.20000
    3646.800      4.19188      4.20000
    3651.000      4.19045      4.20000
    3655.200      4.19075      4.20000
    3659.400      4.19218      4.20000
    3663.600      4.19365      4.20000
    3667.800      4.19442      4.20000
    3672.000      4.19370      4.20000
    3676.200      4.19374      4.20000
    3680.400      4.19742      4.20000
    3684.600      4.20212      4.20000
    3688.800      4.20427      4.20000
    3693.000      4.20492      4.20000
    3697.200      4.20564      4.20000
    3701.400      4.20463      4.20000
    3705.600      4.20013      4.20000
    3709.800      4.19292      4.20000
    3714.000      4.18378      4.20000
    3718.200      4.17482      4.20000
    3722.400      4.16810      4.20000
    3726.600      4.15966      4.20000
    3730.800      4.14596      4.20000
    3735.000      4.13262      4.20000
    3739.200      4.12402      4.20000
    3743.400      4.11346      4.20000
    3747.600      4.09623      4.20000
    3751.800      4.07752      4.20000
    3756.000      4.06157      4.20000
    3760.200      4.05600      4.20000
    3764.400      4.06292      4.20000
    3768.600      4.05330      4.20000
    3772.800      4.01256      4.20000
    3777.000      3.97567      4.20000
    3781.200      3.96566      4.20000
    3785.400      3.98483      4.20000
    3789.600      4.02641      4.20000
    3793.800      4.04743      4.20000
    3798.000      4.02139      4.20000
    3802.200      3.97156      4.20000
    3806.400      3.92171      4.20000
    3810.600      3.89479      4.20000
    3814.800      3.90203      4.20000
    3819.000      3.93474      4.20000
    3823.200      3.98045      4.20000
    3827.400      4.02039      4.20000
    3831.600      4.03392      4.20000
    3835.800      4.00248      4.20000
    3840.000      3.93471      4.20000
    3844.200      3.86879      4.20000
    3848.400      3.82362      4.20000
    3852.600      3.79994      4.20000
    3856.800      3.79590      4.20000
    3861.000      3.80438      4.20000
    3865.200      3.82355      4.20000
    3869.400      3.85734      4.20000
    3873.600      3.90569      4.20000
    3877.800      3.96634      4.20000
    3882.000      4.02076      4.20000
    3886.200      4.03348      4.20000
    3890.400      3.99765      4.20000
    3894.600      3.93244      4.20000
    3898.800      3.86392      4.20000
    3903.000      3.81871      4.20000
    3907.200      3.79924      4.20000
    3911.400      3.79484      4.20000
    3915.600      3.79800      4.20000
    3919.800      3.80180      4.20000
    3924.000      3.80279      4.20000
    3928.200      3.80041      4.20000
    3932.400      3.79676      4.20000
    3936.600      3.79582      4.20000
    3940.800      3.80112      4.20000
    3945.000      3.81515      4.20000
    3949.200      3.84437      4.20000
    3953.400      3.89586      4.20000
    3957.600      3.96221      4.20000
    3961.800      4.03001      4.20000
    3966.000      4.07039      4.20000
    3970.200      4.05077      4.20000
    3974.400      3.99136      4.20000
    3978.600      3.92521      4.20000
    3982.800      3.87091      4.20000
    3987.000      3.84236      4.20000
    3991.200      3.83341      4.20000
    3995.400      3.83420      4.20000
    3999.600      3.84075      4.20000
    4003.800      3.84871      4.20000
    4008.000      3.85635      4.20000
    4012.200      3.86218      4.20000
    4016.400      3.86893      4.20000
    4020.600      3.88030      4.20000
    4024.800      3.88294      4.20000
    4029.000      3.86515      4.20000
    4033.200      3.84321      4.20000
    4037.400      3.83150      4.20000
    4041.600      3.82630      4.20000
    4045.800      3.82440      4.20000
    4050.000      3.82493      4.20000
    4054.200      3.82651      4.20000
    4058.400      3.82958      4.20000
    4062.600      3.83471      4.20000
    4066.800      3.84148      4.20000
    4071.000      3.85035      4.20000
    4075.200      3.86281      4.20000
    4079.400      3.88173      4.20000
    4083.600      3.91777      4.20000
    4087.800      3.97576      4.20000
    4092.000      4.04306      4.20000
    4096.200      4.10059      4.20000
    4100.400      4.11412      4.20000
    4104.600      4.07074      4.20000
    4108.800      4.00710      4.20000
    4113.000      3.95084      4.20000
    4117.200      3.91329      4.20000
    4121.400      3.89774      4.20000
    4125.600      3.89271      4.20000
    4129.800      3.89061      4.20000
    4134.000      3.89161      4.20000
    4138.200      3.89360      4.20000
    4142.400      3.89239      4.20000
    4146.600      3.88687      4.20000
    4150.800      3.87924      4.20000
    4155.000      3.87239      4.20000
    4159.200      3.87018      4.20000
    4163.400      3.87258      4.20000
    4167.600      3.87510      4.20000
    4171.800      3.87576      4.20000
    4176.000      3.87496      4.20000
    4180.200      3.87394      4.20000
    4184.400      3.87515      4.20000
    4188.600      3.87821      4.20000
    4192.800      3.88014      4.20000
    4197.000      3.88093      4.20000
    4201.200      3.88279      4.20000
    4205.400      3.88561      4.20000
    4209.600      3.88786      4.20000
    4213.800      3.88961      4.20000
    4218.000      3.89189      4.20000
    4222.200      3.89474      4.20000
    4226.400      3.89768      4.20000
    4230.600      3.90073      4.20000
    4234.800      3.90423      4.20000
    4239.000      3.90713      4.20000
    4243.200      3.90767      4.20000
    4247.400      3.90782      4.20000
    4251.600      3.91084      4.20000
    4255.800      3.91625      4.20000
    4260.000      3.92245      4.20000
    4264.200      3.92714      4.20000
    4268.400      3.92764      4.20000
    4272.600      3.92623      4.20000
    4276.800      3.92661      4.20000
    4281.000      3.92781      4.20000
    4285.200      3.92797      4.20000
    4289.400      3.92822      4.20000
    4293.600      3.93020      4.20000
    4297.800      3.93302      4.20000
    4302.000      3.93572      4.20000
    4306.200      3.94015      4.20000
    4310.400      3.94894      4.20000
    4314.600      3.96268      4.20000
    4318.800      3.98088      4.20000
    4323.000      4.01485      4.20000
    4327.200      4.07492      4.20000
    4331.400      4.14447      4.20000
    4335.600      4.20277      4.20000
    4339.800      4.22142      4.20000
    4344.000      4.18013      4.20000
    4348.200      4.11247      4.20000
    4352.400      4.04962      4.20000
    4356.600      4.00308      4.20000
    4360.800      3.98023      4.20000
    4365.000      3.97293      4.20000
    4369.200      3.97299      4.20000
    4373.400      3.97797      4.20000
    4377.600      3.98472      4.20000
    4381.800      3.99155      4.20000
    4386.000      3.99666      4.20000
    4390.200      3.99546      4.20000
    4394.400      3.98673      4.20000
    4398.600      3.97730      4.20000
    4402.800      3.97218      4.20000
    4407.000      3.97205      4.20000
    4411.200      3.97616      4.20000
    4415.400      3.97991      4.20000
    4419.600      3.98111      4.20000
    4423.800      3.98371      4.20000
    4428.000      3.98866      4.20000
    4432.200      3.99129      4.20000
    4436.400      3.99056      4.20000
    4440.600      3.99097      4.20000
    4444.800      3.99457      4.20000
    4449.000      3.99976      4.20000
    4453.200      4.00660      4.20000
    4457.400      4.01683      4.20000
    4461.600      4.03095      4.20000
    4465.800      4.04933      4.20000
    4470.000      4.06504      4.20000
    4474.200      4.06232      4.20000
    4478.400      4.04193      4.20000
    4482.600      4.02049      4.20000
    4486.800      4.00596      4.20000
    4491.000      3.99970      4.20000
    4495.200      3.99994      4.20000
    4499.400      4.00149      4.20000
    4503.600      4.00271      4.20000
    4507.800      4.00459      4.20000
    4512.000      4.00781      4.20000
    4516.200      4.01363      4.20000
    4520.400      4.01863      4.20000
    4524.600      4.01636      4.20000
    4528.800      4.01022      4.20000
    4533.000      4.00879      4.20000
    4537.200      4.01231      4.20000
    4541.400      4.01735      4.20000
    4545.600      4.02205      4.20000
    4549.800      4.02479      4.20000
    4554.000      4.02589      4.20000
    4558.200      4.02659      4.20000
    4562.400      4.02714      4.20000
    4566.600      4.02754      4.20000
    4570.800      4.02814      4.20000
    4575.000      4.02941      4.20000
    4579.200      4.03077      4.20000
    4583.400      4.03134      4.20000
    4587.600      4.03192      4.20000
    4591.800      4.03361      4.20000
    4596.000      4.03573      4.20000
    4600.200      4.03734      4.20000
    4604.400      4.03893      4.20000
    4608.600      4.04111      4.20000
    4612.800      4.04367      4.20000
    4617.000      4.04633      4.20000
    4621.200      4.04873      4.20000
    4625.400      4.05050      4.20000
    4629.600      4.05168      4.20000
    4633.800      4.05233      4.20000
    4638.000      4.05305      4.20000
    4642.200      4.05442      4.20000
    4646.400      4.05514      4.20000
    4650.600      4.05420      4.20000
    4654.800      4.05339      4.20000
    4659.000      4.05418      4.20000
    4663.200      4.05618      4.20000
    4667.400      4.05892      4.20000
    4671.600      4.06133      4.20000
    4675.800      4.06263      4.20000
    4680.000      4.06380      4.20000
    4684.200      4.06558      4.20000
    4688.400      4.06763      4.20000
    4692.600      4.06981      4.20000
    4696.800      4.07232      4.20000
    4701.000      4.07534      4.20000
    4705.200      4.07945      4.20000
    4709.400      4.08426      4.20000
    4713.600      4.08682      4.20000
    4717.800      4.08580      4.20000
    4722.000      4.08328      4.20000
    4726.200      4.08115      4.20000
    4730.400      4.08121      4.20000
    4734.600      4.08384      4.20000
    4738.800      4.08676      4.20000
    4743.000      4.08866      4.20000
    4747.200      4.08987      4.20000
    4751.400      4.09077      4.20000
    4755.600      4.09208      4.20000
    4759.800      4.09393      4.20000
    4764.000      4.09559      4.20000
    4768.200      4.09695      4.20000
    4772.400      4.09866      4.20000
    4776.600      4.10066      4.20000
    4780.800      4.10220      4.20000
    4785.000      4.10320      4.20000
    4789.200      4.10426      4.20000
    4793.400      4.10536      4.20000
    4797.600      4.10582      4.20000
    4801.800      4.10620      4.20000
    4806.000      4.10801      4.20000
    4810.200      4.11062      4.20000
    4814.400      4.11195      4.20000
    4818.600      4.11191      4.20000
    4822.800      4.11182      4.20000
    4827.000      4.11288      4.20000
    4831.200      4.11668      4.20000
    4835.400      4.12469      4.20000
    4839.600      4.13717      4.20000
    4843.800      4.16272      4.20000
    4848.000      4.21341      4.20000
    4852.200      4.28256      4.20000
    4856.400      4.35454      4.20000
    4860.600      4.39726      4.20000
    4864.800      4.37269      4.20000
    4869.000      4.30415      4.20000
    4873.200      4.23274      4.20000
    4877.400      4.17713      4.20000
    4881.600      4.14950      4.20000
    4885.800      4.14044      4.20000
    4890.000      4.13514      4.20000
    4894.200      4.13198      4.20000
    4898.400      4.13099      4.20000
    4902.600      4.13132      4.20000
    4906.800      4.13232      4.20000
    4911.000      4.13759      4.20000
    4915.200      4.15115      4.20000
    4919.400      4.16440      4.20000
    4923.600      4.16810      4.20000
    4927.800      4.16244      4.20000
    4932.000      4.14865      4.20000
    4936.200      4.13588      4.20000
    4940.400      4.13270      4.20000
    4944.600      4.13449      4.20000
    4948.800      4.13659      4.20000
    4953.000      4.13872      4.20000
    4957.200      4.14029      4.20000
    4961.400      4.14177      4.20000
    4965.600      4.14378      4.20000
    4969.800      4.14558      4.20000
    4974.000      4.14679      4.20000
    4978.200      4.14812      4.20000
    4982.400      4.15017      4.20000
    4986.600      4.15328      4.20000
    4990.800      4.15753      4.20000
    4995.000      4.16196      4.20000
    4999.200      4.16611      4.20000
    5003.400      4.17161      4.20000
    5007.600      4.17876      4.20000
    5011.800      4.18422      4.20000
    5016.000      4.18589      4.20000
    5020.200      4.18419      4.20000
    5024.400      4.18051      4.20000
    5028.600      4.17814      4.20000
    5032.800      4.17902      4.20000
    5037.000      4.18262      4.20000
    5041.200      4.18768      4.20000
    5045.400      4.19189      4.20000
    5049.600      4.19366      4.20000
    5053.800      4.19271      4.20000
    5058.000      4.18999      4.20000
    5062.200      4.18807      4.20000
    5066.400      4.18821      4.20000
    5070.600      4.19000      4.20000
    5074.800      4.19246      4.20000
    5079.000      4.19380      4.20000
    5083.200      4.19371      4.20000
    5087.400      4.19336      4.20000
    5091.600      4.19377      4.20000
    5095.800      4.19592      4.20000
    5100.000      4.19912      4.20000
    5104.200      4.20120      4.20000
    5108.400      4.20189      4.20000
    5112.600      4.20232      4.20000
    5116.800      4.20320      4.20000
    5121.000      4.20515      4.20000
    5125.200      4.20761      4.20000
    5129.400      4.20928      4.20000
    5133.600      4.20998      4.20000
    5137.800      4.21012      4.20000
    5142.000      4.21030      4.20000
    5146.200      4.21130      4.20000
    5150.400      4.21271      4.20000
    5154.600      4.21354      4.20000
    5158.800      4.21407      4.20000
    5163.000      4.21511      4.20000
    5167.200      4.21604      4.20000
    5171.400      4.21578      4.20000
    5175.600      4.21530      4.20000
    5179.800      4.21616      4.20000
    5184.000      4.21785      4.20000
    5188.200      4.21934      4.20000
    5192.400      4.22097      4.20000
    5196.600      4.22333      4.20000
    5200.800      4.22551      4.20000
    5205.000      4.22641      4.20000
    5209.200      4.22652      4.20000
    5213.400      4.22649      4.20000
    5217.600      4.22687      4.20000
    5221.800      4.22819      4.20000
    5226.000      4.22998      4.20000
    5230.200      4.23170      4.20000
    5234.400      4.23301      4.20000
    5238.600      4.23357      4.20000
    5242.800      4.23427      4.20000
    5247.000      4.23592      4.20000
    5251.200      4.23824      4.20000
    5255.400      4.24087      4.20000
    5259.600      4.24264      4.20000
    5263.800      4.24262      4.20000
    5268.000      4.24218      4.20000
    5272.200      4.24251      4.20000
    5276.400      4.24391      4.20000
    5280.600      4.24643      4.20000
    5284.800      4.24868      4.20000
    5289.000      4.24970      4.20000
    5293.200      4.25070      4.20000
    5297.400      4.25244      4.20000
    5301.600      4.25413      4.20000
    5305.800      4.25527      4.20000
    5310.000      4.25603      4.20000
    5314.200      4.25654      4.20000
    5318.400      4.25690      4.20000
    5322.600      4.25731      4.20000
    5326.800      4.25807      4.20000
    5331.000      4.25937      4.20000
    5335.200      4.26124      4.20000
    5339.400      4.26329      4.20000
    5343.600      4.26423      4.20000
    5347.800      4.26369      4.20000
    5352.000      4.26271      4.20000
    5356.200      4.26214      4.20000
    5360.400      4.26259      4.20000
    5364.600      4.26420      4.20000
    5368.800      4.26653      4.20000
    5373.000      4.26895      4.20000
    5377.200      4.27064      4.20000
    5381.400      4.27145      4.20000
    5385.600      4.27210      4.20000
    5389.800      4.27279      4.20000
    5394.000      4.27322      4.20000
    5398.200      4.27367      4.20000
    5402.400      4.27492      4.20000
    5406.600      4.27687      4.20000
    5410.800      4.27871      4.20000
    5415.000      4.28039      4.20000
    5419.200      4.28244      4.20000
    5423.400      4.28460      4.20000
    5427.600      4.28625      4.20000
    5431.800      4.28708      4.20000
    5436.000      4.28680      4.20000
    5440.200      4.28673      4.20000
    5444.400      4.28910      4.20000
    5448.600      4.29258      4.20000
    5452.800      4.29424      4.20000
    5457.000      4.29401      4.20000
    5461.200      4.29292      4.20000
    5465.400      4.29237      4.20000
    5469.600      4.29406      4.20000
    5473.800      4.29690      4.20000
    5478.000      4.29882      4.20000
    5482.200      4.29993      4.20000
    5486.400      4.30094      4.20000
    5490.600      4.30163      4.20000
    5494.800      4.30164      4.20000
    5499.000      4.30159      4.20000
    5503.200      4.30225      4.20000
    5507.400      4.30344      4.20000
    5511.600      4.30482      4.20000
    5515.800      4.30638      4.20000
    5520.000      4.30812      4.20000
    5524.200      4.30990      4.20000
    5528.400      4.31162      4.20000
    5532.600      4.31305      4.20000
    5536.800      4.31393      4.20000
    5541.000      4.31504      4.20000
    5545.200      4.31708      4.20000
    5549.400      4.31910      4.20000
    5553.600      4.32025      4.20000
    5557.800      4.32055      4.20000
    5562.000      4.32012      4.20000
    5566.200      4.32034      4.20000
    5570.400      4.32228      4.20000
    5574.600      4.32372      4.20000
    5578.800      4.32314      4.20000
    5583.000      4.32279      4.20000
    5587.200      4.32432      4.20000
    5591.400      4.32723      4.20000
    5595.600      4.33082      4.20000
    5599.800      4.33323      4.20000
    5604.000      4.33349      4.20000
    5608.200      4.33364      4.20000
    5612.400      4.33510      4.20000
    5616.600      4.33745      4.20000
    5620.800      4.34020      4.20000
    5625.000      4.34231      4.20000
    5629.200      4.34341      4.20000
    5633.400      4.34475      4.20000
    5637.600      4.34703      4.20000
    5641.800      4.35009      4.20000
    5646.000      4.35323      4.20000
    5650.200      4.35459      4.20000
    5654.400      4.35412      4.20000
    5658.600      4.35481      4.20000
    5662.800      4.35764      4.20000
    5667.000      4.36093      4.20000
    5671.200      4.36365      4.20000
    5675.400      4.36537      4.20000
    5679.600      4.36625      4.20000
    5683.800      4.36737      4.20000
    5688.000      4.36896      4.20000
    5692.200      4.37047      4.20000
    5696.400      4.37158      4.20000
    5700.600      4.37209      4.20000
    5704.800      4.37255      4.20000
    5709.000      4.37415      4.20000
    5713.200      4.37676      4.20000
    5717.400      4.37922      4.20000
    5721.600      4.38103      4.20000
    5725.800      4.38193      4.20000
    5730.000      4.38284      4.20000
    5734.200      4.38552      4.20000
    5738.400      4.38890      4.20000
    5742.600      4.39022      4.20000
    5746.800      4.38978      4.20000
    5751.000      4.38935      4.20000
    5755.200      4.38960      4.20000
    5759.400      4.39076      4.20000
    5763.600      4.39245      4.20000
    5767.800      4.39391      4.20000
    5772.000      4.39472      4.20000
    5776.200      4.39459      4.20000
    5780.400      4.39400      4.20000
    5784.600      4.39379      4.20000
    5788.800      4.39394      4.20000
    5793.000      4.39416      4.20000
    5797.200      4.39470      4.20000
    5801.400      4.39595      4.20000
    5805.600      4.39684      4.20000
    5809.800      4.39612      4.20000
    5814.000      4.39473      4.20000
    5818.200      4.39389      4.20000
    5822.400      4.39382      4.20000
    5826.600      4.39467      4.20000
    5830.800      4.39570      4.20000
    5835.000      4.39607      4.20000
    5839.200      4.39629      4.20000
    5843.400      4.39697      4.20000
    5847.600      4.39790      4.20000
    5851.800      4.39906      4.20000
    5856.000      4.40070      4.20000
    5860.200      4.40301      4.20000
    5864.400      4.41016      4.20000
    5868.600      4.42492      4.20000
    5872.800      4.43943      4.20000
    5877.000      4.44665      4.20000
    5881.200      4.44552      4.20000
    5885.400      4.43669      4.20000
    5889.600      4.42805      4.20000
    5893.800      4.42547      4.20000
    5898.000      4.42497      4.20000
    5902.200      4.42376      4.20000
    5906.400      4.42334      4.20000
    5910.600      4.42439      4.20000
    5914.800      4.42648      4.20000
    5919.000      4.42902      4.20000
    5923.200      4.43020      4.20000
    5927.400      4.42958      4.20000
    5931.600      4.42993      4.20000
    5935.800      4.43261      4.20000
    5940.000      4.43613      4.20000
    5944.200      4.43914      4.20000
    5948.400      4.44030      4.20000
    5952.600      4.43947      4.20000
    5956.800      4.43882      4.20000
    5961.000      4.43938      4.20000
    5965.200      4.44058      4.20000
    5969.400      4.44192      4.20000
    5973.600      4.44300      4.20000
    5977.800      4.44343      4.20000
    5982.000      4.44275      4.20000
    5986.200      4.44182      4.20000
    5990.400      4.44309      4.20000
    5994.600      4.44645      4.20000
    5998.800      4.44920      4.20000
    6003.000      4.45045      4.20000
    6007.200      4.45087      4.20000
    6011.400      4.45080      4.20000
    6015.600      4.45029      4.20000
    6019.800      4.45017      4.20000
    6024.000      4.45182      4.20000
    6028.200      4.45465      4.20000
    6032.400      4.45664      4.20000
    6036.600      4.45757      4.20000
    6040.800      4.45825      4.20000
    6045.000      4.45880      4.20000
    6049.200      4.45898      4.20000
    6053.400      4.45934      4.20000
    6057.600      4.46087      4.20000
    6061.800      4.46297      4.20000
    6066.000      4.46428      4.20000
    6070.200      4.46530      4.20000
    6074.400      4.46724      4.20000
    6078.600      4.46929      4.20000
    6082.800      4.46998      4.20000
    6087.000      4.46974      4.20000
    6091.200      4.46943      4.20000
    6095.400      4.46957      4.20000
    6099.600      4.47059      4.20000
    6103.800      4.47202      4.20000
    6108.000      4.47315      4.20000
    6112.200      4.47383      4.20000
    6116.400      4.47399      4.20000
    6120.600      4.47390      4.20000
    6124.800      4.47396      4.20000
    6129.000      4.47444      4.20000
    6133.200      4.47546      4.20000
    6137.400      4.47766      4.20000
    6141.600      4.48170      4.20000
    6145.800      4.48506      4.20000
    6150.000      4.48528      4.20000
    6154.200      4.48463      4.20000
    6158.400      4.48532      4.20000
    6162.600      4.48590      4.20000
    6166.800      4.48522      4.20000
    6171.000      4.48483      4.20000
    6175.200      4.48590      4.20000
    6179.400      4.48736      4.20000
    6183.600      4.48836      4.20000
    6187.800      4.48903      4.20000
    6192.000      4.48952      4.20000
    6196.200      4.49074      4.20000
    6200.400      4.49314      4.20000
    6204.600      4.49515      4.20000
    6208.800      4.49577      4.20000
    6213.000      4.49602      4.20000
    6217.200      4.49661      4.20000
    6221.400      4.49763      4.20000
    6225.600      4.49899      4.20000
    6229.800      4.49983      4.20000
    6234.000      4.49992      4.20000
    6238.200      4.50043      4.20000
    6242.400      4.50203      4.20000
    6246.600      4.50454      4.20000
    6250.800      4.50738      4.20000
    6255.000      4.50891      4.20000
    6259.200      4.50944      4.20000
    6263.400      4.51240      4.20000
    6267.600      4.51928      4.20000
    6271.800      4.52921      4.20000
    6276.000      4.52555      4.20000
    6280.200      4.52219      4.20000
    6284.400      4.52312      4.20000
    6288.600      4.52407      4.20000
    6292.800      4.52615      4.20000
    6297.000      4.53121      4.20000
    6301.200      4.53561      4.20000
    6305.400      4.53434      4.20000
    6309.600      4.53222      4.20000
    6313.800      4.53001      4.20000
    6318.000      4.52824      4.20000
    6322.200      4.52741      4.20000
    6326.400      4.52767      4.20000
    6330.600      4.52876      4.20000
    6334.800      4.53093      4.20000
    6339.000      4.53482      4.20000
    6343.200      4.53893      4.20000
    6347.400      4.54059      4.20000
    6351.600      4.53947      4.20000
    6355.800      4.53630      4.20000
    6360.000      4.53360      4.20000
    6364.200      4.53481      4.20000
    6368.400      4.53835      4.20000
    6372.600      4.54048      4.20000
    6376.800      4.54079      4.20000
    6381.000      4.54004      4.20000
    6385.200      4.53890      4.20000
    6389.400      4.53802      4.20000
    6393.600      4.53834      4.20000
    6397.800      4.54091      4.20000
    6402.000      4.54352      4.20000
    6406.200      4.54316      4.20000
    6410.400      4.54162      4.20000
    6414.600      4.54150      4.20000
    6418.800      4.54246      4.20000
    6423.000      4.54388      4.20000
    6427.200      4.54452      4.20000
    6431.400      4.54294      4.20000
    6435.600      4.54108      4.20000
    6439.800      4.54111      4.20000
    6444.000      4.54214      4.20000
    6448.200      4.54309      4.20000
    6452.400      4.54450      4.20000
    6456.600      4.54681      4.20000
    6460.800      4.54883      4.20000
    6465.000      4.54956      4.20000
    6469.200      4.55119      4.20000
    6473.400      4.55545      4.20000
    6477.600      4.55955      4.20000
    6481.800      4.56120      4.20000
    6486.000      4.56103      4.20000
    6490.200      4.55980      4.20000
    6494.400      4.55877      4.20000
    6498.600      4.56116      4.20000
    6502.800      4.56229      4.20000
    6507.000      4.56474      4.20000
    6511.200      4.56801      4.20000
    6515.400      4.57078      4.20000
    6519.600      4.57211      4.20000
    6523.800      4.57233      4.20000
    6528.000      4.57369      4.20000
    6532.200      4.57776      4.20000
    6536.400      4.58433      4.20000
    6540.600      4.59454      4.20000
    6544.800      4.61224      4.20000
    6549.000      4.64243      4.20000
    6553.200      4.68980      4.20000
    6557.400      4.74843      4.20000
    6561.600      4.79124      4.20000
    6565.800      4.78728      4.20000
    6570.000      4.73813      4.20000
    6574.200      4.67905      4.20000
    6578.400      4.63813      4.20000
    6582.600      4.61550      4.20000
    6586.800      4.60169      4.20000
    6591.000      4.59354      4.20000
    6595.200      4.58972      4.20000
    6599.400      4.58784      4.20000
    6603.600      4.58691      4.20000
    6607.800      4.58711      4.20000
    6612.000      4.58734      4.20000
    6616.200      4.58642      4.20000
    6620.400      4.58624      4.20000
    6624.600      4.58762      4.20000
    6628.800      4.58784      4.20000
    6633.000      4.58664      4.20000
    6637.200      4.58696      4.20000
    6641.400      4.58855      4.20000
    6645.600      4.58939      4.20000
    6649.800      4.58958      4.20000
    6654.000      4.58998      4.20000
    6658.200      4.59102      4.20000
    6662.400      4.59324      4.20000
    6666.600      4.59847      4.20000
    6670.800      4.60843      4.20000
    6675.000      4.61917      4.20000
    6679.200      4.62334      4.20000
    6683.400      4.61772      4.20000
    6687.600      4.60614      4.20000
    6691.800      4.59786      4.20000
    6696.000      4.59712      4.20000
    6700.200      4.59892      4.20000
    6704.400      4.59979      4.20000
    6708.600      4.60060      4.20000
    6712.800      4.60159      4.20000
    6717.000      4.60226      4.20000
    6721.200      4.60294      4.20000
    6725.400      4.60390      4.20000
    6729.600      4.60468      4.20000
    6733.800      4.60540      4.20000
    6738.000      4.60696      4.20000
    6742.200      4.60889      4.20000
    6746.400      4.60985      4.20000
    6750.600      4.61041      4.20000
    6754.800      4.61119      4.20000
    6759.000      4.61306      4.20000
    6763.200      4.61549      4.20000
    6767.400      4.61725      4.20000
    6771.600      4.61729      4.20000
    6775.800      4.61784      4.20000
    6780.000      4.62099      4.20000
    6784.200      4.62387      4.20000
    6788.400      4.62423      4.20000
    6792.600      4.62384      4.20000
    6796.800      4.62440      4.20000
    6801.000      4.62575      4.20000
    6805.200      4.62714      4.20000
    6809.400      4.62793      4.20000
    6813.600      4.62824      4.20000
    6817.800      4.62864      4.20000
    6822.000      4.62937      4.20000
    6826.200      4.63033      4.20000
    6830.400      4.63112      4.20000
    6834.600      4.63225      4.20000
    6838.800      4.63466      4.20000
    6843.000      4.63690      4.20000
    6847.200      4.63827      4.20000
    6851.400      4.64185      4.20000
    6855.600      4.65331      4.20000
    6859.800      4.64441      4.20000
    6864.000      4.65091      4.20000
    6868.200      4.65429      4.20000
    6872.400      4.65383      4.20000
    6876.600      4.65467      4.20000
    6880.800      4.65287      4.20000
    6885.000      4.65206      4.20000
    6889.200      4.65489      4.20000
    6893.400      4.65678      4.20000
    6897.600      4.65817      4.20000
    6901.800      4.65978      4.20000
    6906.000      4.66006      4.20000
    6910.200      4.66070      4.20000
    6914.400      4.66236      4.20000
    6918.600      4.66624      4.20000
    6922.800      4.67127      4.20000
    6927.000      4.67824      4.20000
    6931.200      4.68744      4.20000
    6935.400      4.69140      4.20000
    6939.600      4.68942      4.20000
    6943.800      4.68768      4.20000
    6948.000      4.68580      4.20000
    6952.200      4.68437      4.20000
    6956.400      4.68296      4.20000
    6960.600      4.67964      4.20000
    6964.800      4.67575      4.20000
    6969.000      4.67406      4.20000
    6973.200      4.67427      4.20000
    6977.400      4.67585      4.20000
    6981.600      4.67941      4.20000
    6985.800      4.68388      4.20000
    6990.000      4.68728      4.20000
    6994.200      4.68894      4.20000
    6998.400      4.68954      4.20000
    7002.600      4.68980      4.20000
    7006.800      4.69022      4.20000
    7011.000      4.69105      4.20000
    7015.200      4.69233      4.20000
    7019.400      4.69382      4.20000
    7023.600      4.69471      4.20000
    7027.800      4.69441      4.20000
    7032.000      4.69416      4.20000
    7036.200      4.69469      4.20000
    7040.400      4.69525      4.20000
    7044.600      4.69531      4.20000
    7048.800      4.69623      4.20000
    7053.000      4.69951      4.20000
    7057.200      4.70488      4.20000
    7061.400      4.71128      4.20000
    7065.600      4.71442      4.20000
    7069.800      4.71147      4.20000
    7074.000      4.70642      4.20000
    7078.200      4.70300      4.20000
    7082.400      4.70105      4.20000
    7086.600      4.70046      4.20000
    7090.800      4.70125      4.20000
    7095.000      4.70269      4.20000
    7099.200      4.70432      4.20000
    7103.400      4.70521      4.20000
    7107.600      4.70534      4.20000
    7111.800      4.70613      4.20000
    7116.000      4.70785      4.20000
    7120.200      4.70964      4.20000
    7124.400      4.71121      4.20000
    7128.600      4.71261      4.20000
    7132.800      4.71352      4.20000
    7137.000      4.71437      4.20000
    7141.200      4.71598      4.20000
    7145.400      4.71806      4.20000
    7149.600      4.72094      4.20000
    7153.800      4.72578      4.20000
    7158.000      4.73334      4.20000
    7162.200      4.73385      4.20000
    7166.400      4.72943      4.20000
    7170.600      4.72857      4.20000
    7174.800      4.73137      4.20000
    7179.000      4.73138      4.20000
    7183.200      4.73138      4.20000
    7187.400      4.73229      4.20000
    7191.600      4.73313      4.20000
    7195.800      4.73358      4.20000
    7200.000      4.73386      4.20000
    7204.200      4.73371      4.20000
    7208.400      4.73227      4.20000
    7212.600      4.73326      4.20000
    7216.800      4.74007      4.20000
    7221.000      4.74133      4.20000
    7225.200      4.74079      4.20000
    7229.400      4.73915      4.20000
    7233.600      4.74392      4.20000
    7237.800      4.74815      4.20000
    7242.000      4.75019      4.20000
    7246.200      4.74996      4.20000
    7250.400      4.74821      4.20000
    7254.600      4.74593      4.20000
    7258.800      4.74395      4.20000
    7263.000      4.74347      4.20000
    7267.200      4.74653      4.20000
    7271.400      4.75174      4.20000
    7275.600      4.75589      4.20000
    7279.800      4.75783      4.20000
    7284.000      4.75704      4.20000
    7288.200      4.75466      4.20000
    7292.400      4.75259      4.20000
    7296.600      4.75417      4.20000
    7300.800      4.75615      4.20000
    7305.000      4.75631      4.20000
    7309.200      4.75995      4.20000
    7313.400      4.76085      4.20000
    7317.600      4.76310      4.20000
    7321.800      4.76483      4.20000
    7326.000      4.76952      4.20000
    7330.200      4.77399      4.20000
    7334.400      4.77657      4.20000
    7338.600      4.77520      4.20000
    7342.800      4.77419      4.20000
    7347.000      4.77412      4.20000
    7351.200      4.77484      4.20000
    7355.400      4.77608      4.20000
    7359.600      4.77772      4.20000
    7363.800      4.77860      4.20000
    7368.000      4.77838      4.20000
    7372.200      4.77789      4.20000
    7376.400      4.77706      4.20000
    7380.600      4.77624      4.20000
    7384.800      4.77676      4.20000
    7389.000      4.77793      4.20000
    7393.200      4.77813      4.20000
    7397.400      4.77750      4.20000
    7401.600      4.77679      4.20000
    7405.800      4.77685      4.20000
    7410.000      4.77796      4.20000
    7414.200      4.77904      4.20000
    7418.400      4.77948      4.20000
    7422.600      4.77948      4.20000
    7426.800      4.77938      4.20000
    7431.000      4.78066      4.20000
    7435.200      4.78321      4.20000
    7439.400      4.78490      4.20000
    7443.600      4.78529      4.20000
    7447.800      4.78505      4.20000
    7452.000      4.78425      4.20000
    7456.200      4.78380      4.20000
    7460.400      4.78505      4.20000
    7464.600      4.78761      4.20000
    7468.800      4.79006      4.20000
    7473.000      4.79151      4.20000
    7477.200      4.79220      4.20000
    7481.400      4.79201      4.20000
    7485.600      4.79097      4.20000
    7489.800      4.79069      4.20000
    7494.000      4.79188      4.20000
    7498.200      4.79304      4.20000
    7502.400      4.79389      4.20000
    7506.600      4.79533      4.20000
    7510.800      4.79667      4.20000
    7515.000      4.79723      4.20000
    7519.200      4.79779      4.20000
    7523.400      4.79898      4.20000
    7527.600      4.80111      4.20000
    7531.800      4.80215      4.20000
    7536.000      4.80191      4.20000
    7540.200      4.80306      4.20000
    7544.400      4.80568      4.20000
    7548.600      4.80704      4.20000
    7552.800      4.80652      4.20000
    7557.000      4.80675      4.20000
    7561.200      4.80888      4.20000
    7565.400      4.81017      4.20000
    7569.600      4.81036      4.20000
    7573.800      4.81301      4.20000
    7578.000      4.82255      4.20000
    7582.200      4.81917      4.20000
    7586.400      4.81744      4.20000
    7590.600      4.82735      4.20000
    7594.800      4.84305      4.20000
    7599.000      4.84809      4.20000
    7603.200      4.83466      4.20000
    7607.400      4.81026      4.20000
    7611.600      4.79697      4.20000
    7615.800      4.79645      4.20000
    7620.000      4.79991      4.20000
    7624.200      4.81099      4.20000
    7628.400      4.82138      4.20000
    7632.600      4.81867      4.20000
    7636.800      4.81475      4.20000
    7641.000      4.81561      4.20000
    7645.200      4.81689      4.20000
    7649.400      4.81863      4.20000
    7653.600      4.82034      4.20000
    7657.800      4.82021      4.20000
    7662.000      4.81962      4.20000
    7666.200      4.82138      4.20000
    7670.400      4.82479      4.20000
    7674.600      4.82796      4.20000
    7678.800      4.82997      4.20000
    7683.000      4.82994      4.20000
    7687.200      4.84221      4.20000
    7691.400      4.84694      4.20000
    7695.600      4.84789      4.20000
    7699.800      4.84279      4.20000
    7704.000      4.83961      4.20000
    7708.200      4.83778      4.20000
    7712.400      4.83750      4.20000
    7716.600      4.83754      4.20000
    7720.800      4.83689      4.20000
    7725.000      4.83684      4.20000
    7729.200      4.83825      4.20000
    7733.400      4.83907      4.20000
    7737.600      4.83886      4.20000
    7741.800      4.83910      4.20000
    7746.000      4.84021      4.20000
    7750.200      4.84155      4.20000
    7754.400      4.84298      4.20000
    7758.600      4.84469      4.20000
    7762.800      4.84585      4.20000
    7767.000      4.84834      4.20000
    7771.200      4.85380      4.20000
    7775.400      4.85774      4.20000
    7779.600      4.85535      4.20000
    7783.800      4.85005      4.20000
    7788.000      4.84862      4.20000
    7792.200      4.85044      4.20000
    7796.400      4.85094      4.20000
    7800.600      4.85067      4.20000
    7804.800      4.85173      4.20000
    7809.000      4.85273      4.20000
    7813.200      4.85308      4.20000
    7817.400      4.85325      4.20000
    7821.600      4.85284      4.20000
    7825.800      4.85314      4.20000
    7830.000      4.85535      4.20000
    7834.200      4.85711      4.20000
    7838.400      4.85633      4.20000
    7842.600      4.85479      4.20000
    7846.800      4.85531      4.20000
    7851.000      4.85776      4.20000
    7855.200      4.86015      4.20000
    7859.400      4.86164      4.20000
    7863.600      4.86322      4.20000
    7867.800      4.86645      4.20000
    7872.000      4.86993      4.20000
    7876.200      4.87170      4.20000
    7880.400      4.87277      4.20000
    7884.600      4.87385      4.20000
    7888.800      4.87690      4.20000
    7893.000      4.88169      4.20000
    7897.200      4.88395      4.20000
    7901.400      4.88298      4.20000
    7905.600      4.88028      4.20000
    7909.800      4.87732      4.20000
    7914.000      4.87667      4.20000
    7918.200      4.87845      4.20000
    7922.400      4.88029      4.20000
    7926.600      4.88000      4.20000
    7930.800      4.87788      4.20000
    7935.000      4.87603      4.20000
    7939.200      4.87616      4.20000
    7943.400      4.87837      4.20000
    7947.600      4.88168      4.20000
    7951.800      4.88513      4.20000
    7956.000      4.88769      4.20000
    7960.200      4.88941      4.20000
    7964.400      4.89063      4.20000
    7968.600      4.89080      4.20000
    7972.800      4.88936      4.20000
    7977.000      4.88702      4.20000
    7981.200      4.88612      4.20000
    7985.400      4.88816      4.20000
    7989.600      4.89126      4.20000
    7993.800      4.89290      4.20000
    7998.000      4.89328      4.20000
    8002.200      4.89449      4.20000
    8006.400      4.89697      4.20000
    8010.600      4.89866      4.20000
    8014.800      4.89895      4.20000
    8019.000      4.89890      4.20000
    8023.200      4.89975      4.20000
    8027.400      4.90168      4.20000
    8031.600      4.90307      4.20000
    8035.800      4.90273      4.20000
    8040.000      4.90165      4.20000
    8044.200      4.90124      4.20000
    8048.400      4.90138      4.20000
    8052.600      4.90107      4.20000
    8056.800      4.90156      4.20000
    8061.000      4.90380      4.20000
    8065.200      4.90560      4.20000
    8069.400      4.90596      4.20000
    8073.600      4.90686      4.20000
    8077.800      4.90876      4.20000
    8082.000      4.90963      4.20000
    8086.200      4.91011      4.20000
    8090.400      4.91150      4.20000
    8094.600      4.91309      4.20000
    8098.800      4.91462      4.20000
    8103.000      4.91682      4.20000
    8107.200      4.91960      4.20000
    8111.400      4.92270      4.20000
    8115.600      4.92697      4.20000
    8119.800      4.93229      4.20000
    8124.000      4.93851      4.20000
    8128.200      4.94026      4.20000
    8132.400      4.93421      4.20000
    8136.600      4.93110      4.20000
    8140.800      4.93041      4.20000
    8145.000      4.93198      4.20000
    8149.200      4.93457      4.20000
    8153.400      4.93708      4.20000
    8157.600      4.93810      4.20000
    8161.800      4.93802      4.20000
    8166.000      4.93872      4.20000
    8170.200      4.94265      4.20000
    8174.400      4.94347      4.20000
    8178.600      4.94201      4.20000
    8182.800      4.93965      4.20000
    8187.000      4.93965      4.20000
    8191.200      4.93975      4.20000
    8195.400      4.94077      4.20000
    8199.600      4.94352      4.20000
    8203.800      4.94908      4.20000
    8208.000      4.95482      4.20000
    8212.200      4.95614      4.20000
    8216.400      4.94870      4.20000
    8220.600      4.94806      4.20000
    8224.800      4.95538      4.20000
    8229.000      4.95920      4.20000
    8233.200      4.95738      4.20000
    8237.400      4.95366      4.20000
    8241.600      4.95364      4.20000
    8245.800      4.96009      4.20000
    8250.000      4.96022      4.20000
    8254.200      4.96169      4.20000
    8258.400      4.96545      4.20000
    8262.600      4.97078      4.20000
    8266.800      4.97262      4.20000
    8271.000      4.97145      4.20000
    8275.200      4.96490      4.20000
    8279.400      4.96048      4.20000
    8283.600      4.96003      4.20000
    8287.800      4.96057      4.20000
    8292.000      4.96684      4.20000
    8296.200      4.96854      4.20000
    8300.400      4.97274      4.20000
    8304.600      4.97389      4.20000
    8308.800      4.97528      4.20000
    8313.000      4.97827      4.20000
    8317.200      4.98095      4.20000
    8321.400      4.97966      4.20000
    8325.600      4.98107      4.20000
    8329.800      4.97826      4.20000
    8334.000      4.98100      4.20000
    8338.200      4.98222      4.20000
    8342.400      4.98031      4.20000
    8346.600      4.98058      4.20000
    8350.800      4.98066      4.20000
    8355.000      4.98367      4.20000
    8359.200      4.98508      4.20000
    8363.400      4.98482      4.20000
    8367.600      4.98437      4.20000
    8371.800      4.98351      4.20000
    8376.000      4.98242      4.20000
    8380.200      4.98192      4.20000
    8384.400      4.98234      4.20000
    8388.600      4.98298      4.20000
    8392.800      4.98328      4.20000
    8397.000      4.98291      4.20000
    8401.200      4.98289      4.20000
    8405.400      4.98448      4.20000
    8409.600      4.98531      4.20000
    8413.800      4.98440      4.20000
    8418.000      4.98413      4.20000
    8422.200      4.98402      4.20000
    8426.400      4.98406      4.20000
    8430.600      4.98638      4.20000
    8434.800      4.99030      4.20000
    8439.000      4.99380      4.20000
    8443.200      4.99532      4.20000
    8447.400      4.99465      4.20000
    8451.600      4.99340      4.20000
    8455.800      4.99351      4.20000
    8460.000      4.99547      4.20000
    8464.200      4.99700      4.20000
    8468.400      4.99647      4.20000
    8472.600      4.99450      4.20000
    8476.800      4.99277      4.20000
    8481.000      4.99188      4.20000
    8485.200      4.99215      4.20000
    8489.400      4.99460      4.20000
    8493.600      5.00076      4.20000
    8497.800      5.00965      4.20000
    8502.000      5.01529      4.20000
    8506.200      5.01327      4.20000
    8510.400      5.00541      4.20000
    8514.600      4.99682      4.20000
    8518.800      4.99211      4.20000
    8523.000      4.99238      4.20000
    8527.200      4.99555      4.20000
    8531.400      5.00127      4.20000
    8535.600      5.01171      4.20000
    8539.800      5.02442      4.20000
    8544.000      5.03272      4.20000
    8548.200      5.03394      4.20000
    8552.400      5.02827      4.20000
    8556.600      5.01708      4.20000
    8560.800      5.00382      4.20000
    8565.000      4.99271      4.20000
    8569.200      4.98754      4.20000
    8573.400      4.98966      4.20000
    8577.600      4.99721      4.20000
    8581.800      5.00876      4.20000
    8586.000      5.02285      4.20000
    8590.200      5.03873      4.20000
    8594.400      5.05434      4.20000
    8598.600      5.06302      4.20000
    8602.800      5.05901      4.20000
    8607.000      5.04341      4.20000
    8611.200      5.02327      4.20000
    8615.400      5.00559      4.20000
    8619.600      4.99335      4.20000
    8623.800      4.98551      4.20000
    8628.000      4.98040      4.20000
    8632.200      4.97961      4.20000
    8636.400      4.98437      4.20000
    8640.600      4.99217      4.20000
    8644.800      5.00267      4.20000
    8649.000      5.01918      4.20000
    8653.200      5.04207      4.20000
    8657.400      5.06807      4.20000
    8661.600      5.09073      4.20000
    8665.800      5.10165      4.20000
    8670.000      5.09378      4.20000
    8674.200      5.07028      4.20000
    8678.400      5.04388      4.20000
    8682.600      5.02393      4.20000
    8686.800      5.00993      4.20000
    8691.000      4.99780      4.20000
    8695.200      4.98807      4.20000
    8699.400      4.98433      4.20000
    8703.600      4.98456      4.20000
    8707.800      4.98524      4.20000
    8712.000      4.98691      4.20000
    8716.200      4.98917      4.20000
    8720.400      4.99266      4.20000
    8724.600      5.00066      4.20000
    8728.800      5.01435      4.20000
    8733.000      5.03314      4.20000
    8737.200      5.05865      4.20000
    8741.400      5.09195      4.20000
    8745.600      5.12503      4.20000
    8749.800      5.14351      4.20000
    8754.000      5.13960      4.20000
    8758.200      5.11736      4.20000
    8762.400      5.08660      4.20000
    8766.600      5.05728      4.20000
    8770.800      5.03556      4.20000
    8775.000      5.02172      4.20000
    8779.200      5.01313      4.20000
    8783.400      5.00686      4.20000
    8787.600      5.00099      4.20000
    8791.800      4.99684      4.20000
    8796.000      4.99606      4.20000
    8800.200      4.99631      4.20000
    8804.400      4.99503      4.20000
    8808.600      4.99369      4.20000
    8812.800      4.99443      4.20000
    8817.000      4.99788      4.20000
    8821.200      5.00321      4.20000
    8825.400      5.00763      4.20000
    8829.600      5.01032      4.20000
    8833.800      5.01491      4.20000
    8838.000      5.02591      4.20000
    8842.200      5.04501      4.20000
    8846.400      5.07044      4.20000
    8850.600      5.10218      4.20000
    8854.800      5.14077      4.20000
    8859.000      5.17822      4.20000
    8863.200      5.19721      4.20000
    8867.400      5.18638      4.20000
    8871.600      5.15369      4.20000
    8875.800      5.11619      4.20000
    8880.000      5.08468      4.20000
    8884.200      5.06146      4.20000
    8888.400      5.04533      4.20000
    8892.600      5.03444      4.20000
    8896.800      5.02696      4.20000
    8901.000      5.02224      4.20000
    8905.200      5.01994      4.20000
    8909.400      5.02011      4.20000
    8913.600      5.02183      4.20000
    8917.800      5.02326      4.20000
    8922.000      5.02467      4.20000
    8926.200      5.02751      4.20000
    8930.400      5.03233      4.20000
    8934.600      5.03712      4.20000
    8938.800      5.04142      4.20000
    8943.000      5.04888      4.20000
    8947.200      5.06115      4.20000
    8951.400      5.06447      4.20000
    8955.600      5.06795      4.20000
    8959.800      5.07215      4.20000
    8964.000      5.07886      4.20000
    8968.200      5.08641      4.20000
    8972.400      5.08999      4.20000
    8976.600      5.09252      4.20000
    8980.800      5.09979      4.20000
    8985.000      5.10220      4.20000
    8989.200      5.10721      4.20000
    8993.400      5.11846      4.20000
    8997.600      5.12675      4.20000
    9001.800      5.14898      4.20000
    9006.000      5.18755      4.20000
    9010.200      5.23005      4.20000
    9014.400      5.26245      4.20000
    9018.600      5.25977      4.20000
    9022.800      5.21920      4.20000
    9027.000      5.16322      4.20000
    9031.200      5.12420      4.20000
    9035.400      5.11895      4.20000
    9039.600      5.11929      4.20000
    9043.800      5.10438      4.20000
    9048.000      5.09684      4.20000
    9052.200      5.09253      4.20000
    9056.400      5.10588      4.20000
    9060.600      5.10686      4.20000
    9064.800      5.10881      4.20000
    9069.000      5.11263      4.20000
    9073.200      5.11041      4.20000
    9077.400      5.10937      4.20000
    9081.600      5.11478      4.20000
    9085.800      5.11224      4.20000
    9090.000      5.11215      4.20000
    9094.200      5.11149      4.20000
    9098.400      5.11206      4.20000
    9102.600      5.11446      4.20000
    9106.800      5.11805      4.20000
    9111.000      5.11688      4.20000
    9115.200      5.11018      4.20000
    9119.400      5.10888      4.20000
    9123.600      5.11385      4.20000
    9127.800      5.12385      4.20000
    9132.000      5.13227      4.20000
    9136.200      5.13858      4.20000
    9140.400      5.12557      4.20000
    9144.600      5.12169      4.20000
    9148.800      5.12527      4.20000
    9153.000      5.13762      4.20000
    9157.200      5.14388      4.20000
    9161.400      5.13513      4.20000
    9165.600      5.13051      4.20000
    9169.800      5.13585      4.20000
    9174.000      5.13989      4.20000
    9178.200      5.13463      4.20000
    9182.400      5.13231      4.20000
    9186.600      5.13223      4.20000
    9190.800      5.13979      4.20000
    9195.000      5.14450      4.20000
    9199.200      5.14521      4.20000
    9203.400      5.13730      4.20000
    9207.600      5.13783      4.20000
    9211.800      5.14813      4.20000
    9216.000      5.18106      4.20000
    9220.200      5.23359      4.20000
    9224.400      5.30638      4.20000
    9228.600      5.34674      4.20000
    9232.800      5.34882      4.20000
    9237.000      5.26337      4.20000
    9241.200      5.22825      4.20000
    9245.400      5.16401      4.20000
    9249.600      5.15646      4.20000
    9253.800      5.15414      4.20000
    9258.000      5.15340      4.20000
    9262.200      5.15055      4.20000
    9266.400      5.14934      4.20000
    9270.600      5.15313      4.20000
    9274.800      5.15381      4.20000
    9279.000      5.16052      4.20000
    9283.200      5.16403      4.20000
    9287.400      5.16400      4.20000
    9291.600      5.16903      4.20000
    9295.800      5.17746      4.20000
    9300.000      5.18426      4.20000
    9304.200      5.18330      4.20000
    9308.400      5.18057      4.20000
    9312.600      5.18435      4.20000
    9316.800      5.19140      4.20000
    9321.000      5.19469      4.20000
    9325.200      5.19460      4.20000
    9329.400      5.19514      4.20000
    9333.600      5.19772      4.20000
    9337.800      5.20281      4.20000
    9342.000      5.20854      4.20000
    9346.200      5.20928      4.20000
    9350.400      5.20235      4.20000
    9354.600      5.19639      4.20000
    9358.800      5.19393      4.20000
    9363.000      5.19101      4.20000
    9367.200      5.19283      4.20000
    9371.400      5.20197      4.20000
    9375.600      5.20876      4.20000
    9379.800      5.20583      4.20000
    9384.000      5.19612      4.20000
    9388.200      5.18632      4.20000
    9392.400      5.17936      4.20000
    9396.600      5.17944      4.20000
    9400.800      5.18440      4.20000
    9405.000      5.18151      4.20000
    9409.200      5.17948      4.20000
    9413.400      5.17932      4.20000
    9417.600      5.18196      4.20000
    9421.800      5.18851      4.20000
    9426.000      5.20590      4.20000
    9430.200      5.21326      4.20000
    9434.400      5.21194      4.20000
    9438.600      5.21558      4.20000
    9442.800      5.21530      4.20000
    9447.000      5.20780      4.20000
    9451.200      5.20241      4.20000
    9455.400      5.21800      4.20000
    9459.600      5.23014      4.20000
    9463.800      5.23212      4.20000
    9468.000      5.22115      4.20000
    9472.200      5.21712      4.20000
    9476.400      5.21658      4.20000
    9480.600      5.21243      4.20000
    9484.800      5.21070      4.20000
    9489.000      5.21373      4.20000
    9493.200      5.22194      4.20000
    9497.400      5.23130      4.20000
    9501.600      5.23258      4.20000
    9505.800      5.22233      4.20000
    9510.000      5.21174      4.20000
    9514.200      5.21018      4.20000
    9518.400      5.22098      4.20000
    9522.600      5.23619      4.20000
    9526.800      5.24649      4.20000
    9531.000      5.25363      4.20000
    9535.200      5.26614      4.20000
    9539.400      5.31727      4.20000
    9543.600      5.38442      4.20000
    9547.800      5.41682      4.20000
    9552.000      5.39495      4.20000
    9556.200      5.35317      4.20000
    9560.400      5.31422      4.20000
    9564.600      5.27965      4.20000
    9568.800      5.23788      4.20000
    9573.000      5.22760      4.20000
    9577.200      5.22601      4.20000
    9581.400      5.23000      4.20000
    9585.600      5.23665      4.20000
    9589.800      5.24501      4.20000
    9594.000      5.24179      4.20000
    9598.200      5.23619      4.20000
    9602.400      5.23412      4.20000
    9606.600      5.23478      4.20000
    9610.800      5.23635      4.20000
    9615.000      5.23860      4.20000
    9619.200      5.23979      4.20000
    9623.400      5.24198      4.20000
    9627.600      5.24332      4.20000
    9631.800      5.24359      4.20000
    9636.000      5.24835      4.20000
    9640.200      5.24974      4.20000
    9644.400      5.24899      4.20000
    9648.600      5.24448      4.20000
    9652.800      5.23814      4.20000
    9657.000      5.23527      4.20000
    9661.200      5.23963      4.20000
    9665.400      5.24891      4.20000
    9669.600      5.25312      4.20000
    9673.800      5.24760      4.20000
    9678.000      5.23961      4.20000
    9682.200      5.23977      4.20000
    9686.400      5.23959      4.20000
    9690.600      5.24391      4.20000
    9694.800      5.24398      4.20000
    9699.000      5.24615      4.20000
    9703.200      5.24506      4.20000
    9707.400      5.24565      4.20000
    9711.600      5.25035      4.20000
    9715.800      5.25440      4.20000
    9720.000      5.25528      4.20000
    9724.200      5.25110      4.20000
    9728.400      5.25456      4.20000
    9732.600      5.25362      4.20000
    9736.800      5.24806      4.20000
    9741.000      5.25230      4.20000
    9745.200      5.25577      4.20000
    9749.400      5.26143      4.20000
    9753.600      5.26022      4.20000
    9757.800      5.25525      4.20000
    9762.000      5.25997      4.20000
    9766.200      5.25379      4.20000
    9770.400      5.25806      4.20000
    9774.600      5.25847      4.20000
    9778.800      5.25248      4.20000
    9783.000      5.24925      4.20000
    9787.200      5.24914      4.20000
    9791.400      5.25216      4.20000
    9795.600      5.25093      4.20000
    9799.800      5.25169      4.20000
    9804.000      5.25697      4.20000
    9808.200      5.24496      4.20000
    9812.400      5.23479      4.20000
    9816.600      5.23376      4.20000
    9820.800      5.24172      4.20000
    9825.000      5.24565      4.20000
    9829.200      5.24205      4.20000
    9833.400      5.23680      4.20000
    9837.600      5.23111      4.20000
    9841.800      5.22659      4.20000
    9846.000      5.22553      4.20000
    9850.200      5.22445      4.20000
    9854.400      5.22082      4.20000
    9858.600      5.21577      4.20000
    9862.800      5.21277      4.20000
    9867.000      5.21538      4.20000
    9871.200      5.22040      4.20000
    9875.400      5.22125      4.20000
    9879.600      5.21678      4.20000
    9883.800      5.21240      4.20000
    9888.000      5.21225      4.20000
    9892.200      5.21209      4.20000
    9896.400      5.21131      4.20000
    9900.600      5.21383      4.20000
    9904.800      5.21713      4.20000
    9909.000      5.21732      4.20000
    9913.200      5.21354      4.20000
    9917.400      5.20719      4.20000
    9921.600      5.20362      4.20000
    9925.800      5.20877      4.20000
    9930.000      5.21792      4.20000
    9934.200      5.22141      4.20000
    9938.400      5.21995      4.20000
    9942.600      5.21695      4.20000
    9946.800      5.21431      4.20000
    9951.000      5.21646      4.20000
    9955.200      5.22292      4.20000
    9959.400      5.22438      4.20000
    9963.600      5.21657      4.20000
    9967.800      5.20742      4.20000
    9972.000      5.20654      4.20000
    9976.200      5.21519      4.20000
    9980.400      5.22702      4.20000
    9984.600      5.23101      4.20000
    9988.800      5.22309      4.20000
    9993.000      5.21853      4.20000
    9997.200      5.22528      4.20000
   10001.400      5.23004      4.20000
   10005.600      5.22977      4.20000
   10009.800      5.23556      4.20000
   10014.000      5.24608      4.20000
   10018.200      5.24463      4.20000
   10022.400      5.24417      4.20000
   10026.600      5.24164      4.20000
   10030.800      5.24937      4.20000
   10035.000      5.26118      4.20000
   10039.200      5.28571      4.20000
   10043.400      5.33075      4.20000
   10047.600      5.35630      4.20000
   10051.800      5.38190      4.20000
   10056.000      5.35380      4.20000
   10060.200      5.30028      4.20000
   10064.400      5.27193      4.20000
   10068.600      5.26023      4.20000
   10072.800      5.24604      4.20000
   10077.000      5.23787      4.20000
   10081.200      5.24059      4.20000
   10085.400      5.23846      4.20000
   10089.600      5.23976      4.20000
   10093.800      5.25197      4.20000
   10098.000      5.25465      4.20000
   10102.200      5.25091      4.20000
   10106.400      5.23855      4.20000
   10110.600      5.23077      4.20000
   10114.800      5.22816      4.20000
   10119.000      5.22317      4.20000
   10123.200      5.21760      4.20000
   10127.400      5.22113      4.20000
   10131.600      5.22617      4.20000
   10135.800      5.22587      4.20000
   10140.000      5.22375      4.20000
   10144.200      5.23035      4.20000
   10148.400      5.24778      4.20000
   10152.600      5.25695      4.20000
   10156.800      5.24843      4.20000
   10161.000      5.23745      4.20000
   10165.200      5.23305      4.20000
   10169.400      5.23149      4.20000
   10173.600      5.23096      4.20000
   10177.800      5.23046      4.20000
   10182.000      5.22952      4.20000
   10186.200      5.22936      4.20000
   10190.400      5.23070      4.20000
   10194.600      5.23312      4.20000
   10198.800      5.23179      4.20000
   10203.000      5.22381      4.20000
   10207.200      5.21973      4.20000
   10211.400      5.22479      4.20000
   10215.600      5.22418      4.20000
   10219.800      5.21247      4.20000
   10224.000      5.21185      4.20000
   10228.200      5.22755      4.20000
   10232.400      5.23528      4.20000
   10236.600      5.22526      4.20000
   10240.800      5.21512      4.20000
   10245.000      5.21503      4.20000
   10249.200      5.21767      4.20000
   10253.400      5.22696      4.20000
   10257.600      5.24745      4.20000
   10261.800      5.25677      4.20000
   10266.000      5.24846      4.20000
   10270.200      5.24237      4.20000
   10274.400      5.24398      4.20000
   10278.600      5.24295      4.20000
   10282.800      5.24385      4.20000
   10287.000      5.25511      4.20000
   10291.200      5.26072      4.20000
   10295.400      5.23975      4.20000
   10299.600      5.22781      4.20000
   10303.800      5.23824      4.20000
   10308.000      5.26249      4.20000
   10312.200      5.28966      4.20000
   10316.400      5.30659      4.20000
   10320.600      5.29129      4.20000
   10324.800      5.32253      4.20000
   10329.000      5.39418      4.20000
   10333.200      5.39357      4.20000
   10337.400      5.36871      4.20000
   10341.600      5.23395      4.20000
