# LTT3864 from Hamuy,
# corrected for atmospheric absorption by ALG
#
    3000.000     15.73531      4.20000
    3004.200     16.02585      4.20000
    3008.400     16.09256      4.20000
    3012.600     15.95774      4.20000
    3016.800     15.98018      4.20000
    3021.000     16.04946      4.20000
    3025.200     15.83033      4.20000
    3029.400     15.53535      4.20000
    3033.600     15.40666      4.20000
    3037.800     15.37751      4.20000
    3042.000     15.34166      4.20000
    3046.200     15.29186      4.20000
    3050.400     15.24126      4.20000
    3054.600     15.21330      4.20000
    3058.800     15.23604      4.20000
    3063.000     15.28525      4.20000
    3067.200     15.31718      4.20000
    3071.400     15.31516      4.20000
    3075.600     15.27708      4.20000
    3079.800     15.17834      4.20000
    3084.000     15.00753      4.20000
    3088.200     14.86116      4.20000
    3092.400     14.80714      4.20000
    3096.600     14.79509      4.20000
    3100.800     14.77553      4.20000
    3105.000     14.73492      4.20000
    3109.200     14.66234      4.20000
    3113.400     14.59780      4.20000
    3117.600     14.57391      4.20000
    3121.800     14.57349      4.20000
    3126.000     14.58028      4.20000
    3130.200     14.55969      4.20000
    3134.400     14.48635      4.20000
    3138.600     14.39012      4.20000
    3142.800     14.29758      4.20000
    3147.000     14.23493      4.20000
    3151.200     14.21635      4.20000
    3155.400     14.20857      4.20000
    3159.600     14.18637      4.20000
    3163.800     14.16111      4.20000
    3168.000     14.13993      4.20000
    3172.200     14.12442      4.20000
    3176.400     14.11162      4.20000
    3180.600     14.07688      4.20000
    3184.800     14.01112      4.20000
    3189.000     13.93797      4.20000
    3193.200     13.87667      4.20000
    3197.400     13.84464      4.20000
    3201.600     13.84549      4.20000
    3205.800     13.85447      4.20000
    3210.000     13.85435      4.20000
    3214.200     13.84436      4.20000
    3218.400     13.82481      4.20000
    3222.600     13.79849      4.20000
    3226.800     13.77132      4.20000
    3231.000     13.75292      4.20000
    3235.200     13.74350      4.20000
    3239.400     13.73132      4.20000
    3243.600     13.70902      4.20000
    3247.800     13.67338      4.20000
    3252.000     13.63419      4.20000
    3256.200     13.61559      4.20000
    3260.400     13.61844      4.20000
    3264.600     13.62141      4.20000
    3268.800     13.61355      4.20000
    3273.000     13.59291      4.20000
    3277.200     13.56460      4.20000
    3281.400     13.53986      4.20000
    3285.600     13.52389      4.20000
    3289.800     13.51762      4.20000
    3294.000     13.51793      4.20000
    3298.200     13.51810      4.20000
    3302.400     13.51729      4.20000
    3306.600     13.51886      4.20000
    3310.800     13.52057      4.20000
    3315.000     13.51666      4.20000
    3319.200     13.51193      4.20000
    3323.400     13.51690      4.20000
    3327.600     13.52400      4.20000
    3331.800     13.51792      4.20000
    3336.000     13.50199      4.20000
    3340.200     13.48587      4.20000
    3344.400     13.47809      4.20000
    3348.600     13.48697      4.20000
    3352.800     13.50586      4.20000
    3357.000     13.52282      4.20000
    3361.200     13.53147      4.20000
    3365.400     13.52751      4.20000
    3369.600     13.51254      4.20000
    3373.800     13.48996      4.20000
    3378.000     13.47228      4.20000
    3382.200     13.47297      4.20000
    3386.400     13.47904      4.20000
    3390.600     13.47344      4.20000
    3394.800     13.46362      4.20000
    3399.000     13.45916      4.20000
    3403.200     13.45243      4.20000
    3407.400     13.43588      4.20000
    3411.600     13.42215      4.20000
    3415.800     13.42254      4.20000
    3420.000     13.42909      4.20000
    3424.200     13.43396      4.20000
    3428.400     13.43779      4.20000
    3432.600     13.44053      4.20000
    3436.800     13.44036      4.20000
    3441.000     13.43620      4.20000
    3445.200     13.42692      4.20000
    3449.400     13.41289      4.20000
    3453.600     13.40274      4.20000
    3457.800     13.40196      4.20000
    3462.000     13.40199      4.20000
    3466.200     13.39730      4.20000
    3470.400     13.39591      4.20000
    3474.600     13.40144      4.20000
    3478.800     13.40290      4.20000
    3483.000     13.39558      4.20000
    3487.200     13.39308      4.20000
    3491.400     13.40032      4.20000
    3495.600     13.40123      4.20000
    3499.800     13.38861      4.20000
    3504.000     13.37281      4.20000
    3508.200     13.36081      4.20000
    3512.400     13.35449      4.20000
    3516.600     13.35391      4.20000
    3520.800     13.35611      4.20000
    3525.000     13.35513      4.20000
    3529.200     13.33973      4.20000
    3533.400     13.31202      4.20000
    3537.600     13.29157      4.20000
    3541.800     13.28461      4.20000
    3546.000     13.28251      4.20000
    3550.200     13.28263      4.20000
    3554.400     13.28707      4.20000
    3558.600     13.29804      4.20000
    3562.800     13.31949      4.20000
    3567.000     13.34471      4.20000
    3571.200     13.35588      4.20000
    3575.400     13.34927      4.20000
    3579.600     13.33361      4.20000
    3583.800     13.31577      4.20000
    3588.000     13.30177      4.20000
    3592.200     13.29255      4.20000
    3596.400     13.28465      4.20000
    3600.600     13.27923      4.20000
    3604.800     13.28067      4.20000
    3609.000     13.28146      4.20000
    3613.200     13.26756      4.20000
    3617.400     13.24654      4.20000
    3621.600     13.23540      4.20000
    3625.800     13.23338      4.20000
    3630.000     13.23273      4.20000
    3634.200     13.23182      4.20000
    3638.400     13.23121      4.20000
    3642.600     13.22427      4.20000
    3646.800     13.20296      4.20000
    3651.000     13.17688      4.20000
    3655.200     13.15967      4.20000
    3659.400     13.15067      4.20000
    3663.600     13.14599      4.20000
    3667.800     13.14623      4.20000
    3672.000     13.15194      4.20000
    3676.200     13.15841      4.20000
    3680.400     13.16089      4.20000
    3684.600     13.15566      4.20000
    3688.800     13.13945      4.20000
    3693.000     13.12607      4.20000
    3697.200     13.12983      4.20000
    3701.400     13.14024      4.20000
    3705.600     13.14592      4.20000
    3709.800     13.14523      4.20000
    3714.000     13.13687      4.20000
    3718.200     13.12842      4.20000
    3722.400     13.12688      4.20000
    3726.600     13.13167      4.20000
    3730.800     13.14114      4.20000
    3735.000     13.14711      4.20000
    3739.200     13.14230      4.20000
    3743.400     13.12735      4.20000
    3747.600     13.10446      4.20000
    3751.800     13.07810      4.20000
    3756.000     13.05304      4.20000
    3760.200     13.03748      4.20000
    3764.400     13.03323      4.20000
    3768.600     13.01919      4.20000
    3772.800     12.98553      4.20000
    3777.000     12.95241      4.20000
    3781.200     12.93385      4.20000
    3785.400     12.93551      4.20000
    3789.600     12.95567      4.20000
    3793.800     12.97358      4.20000
    3798.000     12.97339      4.20000
    3802.200     12.95108      4.20000
    3806.400     12.91418      4.20000
    3810.600     12.88753      4.20000
    3814.800     12.88546      4.20000
    3819.000     12.90862      4.20000
    3823.200     12.95129      4.20000
    3827.400     12.99689      4.20000
    3831.600     13.02537      4.20000
    3835.800     13.01540      4.20000
    3840.000     12.96702      4.20000
    3844.200     12.90398      4.20000
    3848.400     12.84451      4.20000
    3852.600     12.80058      4.20000
    3856.800     12.77609      4.20000
    3861.000     12.76760      4.20000
    3865.200     12.77311      4.20000
    3869.400     12.79134      4.20000
    3873.600     12.82005      4.20000
    3877.800     12.85651      4.20000
    3882.000     12.89335      4.20000
    3886.200     12.92071      4.20000
    3890.400     12.92626      4.20000
    3894.600     12.89760      4.20000
    3898.800     12.85038      4.20000
    3903.000     12.81377      4.20000
    3907.200     12.79506      4.20000
    3911.400     12.79099      4.20000
    3915.600     12.80815      4.20000
    3919.800     12.85567      4.20000
    3924.000     12.92540      4.20000
    3928.200     13.00168      4.20000
    3932.400     13.04668      4.20000
    3936.600     13.01507      4.20000
    3940.800     12.93767      4.20000
    3945.000     12.86458      4.20000
    3949.200     12.82350      4.20000
    3953.400     12.83455      4.20000
    3957.600     12.88692      4.20000
    3961.800     12.96112      4.20000
    3966.000     13.01903      4.20000
    3970.200     13.01442      4.20000
    3974.400     12.95344      4.20000
    3978.600     12.85907      4.20000
    3982.800     12.76840      4.20000
    3987.000     12.71094      4.20000
    3991.200     12.67912      4.20000
    3995.400     12.66393      4.20000
    3999.600     12.65613      4.20000
    4003.800     12.64558      4.20000
    4008.000     12.63367      4.20000
    4012.200     12.62252      4.20000
    4016.400     12.61427      4.20000
    4020.600     12.61111      4.20000
    4024.800     12.61484      4.20000
    4029.000     12.62581      4.20000
    4033.200     12.63431      4.20000
    4037.400     12.63255      4.20000
    4041.600     12.62428      4.20000
    4045.800     12.61397      4.20000
    4050.000     12.60892      4.20000
    4054.200     12.61356      4.20000
    4058.400     12.61978      4.20000
    4062.600     12.62182      4.20000
    4066.800     12.62293      4.20000
    4071.000     12.62528      4.20000
    4075.200     12.62877      4.20000
    4079.400     12.63389      4.20000
    4083.600     12.64030      4.20000
    4087.800     12.65063      4.20000
    4092.000     12.67755      4.20000
    4096.200     12.72013      4.20000
    4100.400     12.74786      4.20000
    4104.600     12.74221      4.20000
    4108.800     12.70931      4.20000
    4113.000     12.66319      4.20000
    4117.200     12.62719      4.20000
    4121.400     12.60951      4.20000
    4125.600     12.59952      4.20000
    4129.800     12.59131      4.20000
    4134.000     12.58359      4.20000
    4138.200     12.57595      4.20000
    4142.400     12.57061      4.20000
    4146.600     12.56678      4.20000
    4150.800     12.56011      4.20000
    4155.000     12.55249      4.20000
    4159.200     12.55139      4.20000
    4163.400     12.55706      4.20000
    4167.600     12.56415      4.20000
    4171.800     12.56917      4.20000
    4176.000     12.56964      4.20000
    4180.200     12.56711      4.20000
    4184.400     12.56641      4.20000
    4188.600     12.56716      4.20000
    4192.800     12.56590      4.20000
    4197.000     12.56270      4.20000
    4201.200     12.55943      4.20000
    4205.400     12.55665      4.20000
    4209.600     12.55434      4.20000
    4213.800     12.55356      4.20000
    4218.000     12.55570      4.20000
    4222.200     12.55936      4.20000
    4226.400     12.56222      4.20000
    4230.600     12.56234      4.20000
    4234.800     12.55784      4.20000
    4239.000     12.55186      4.20000
    4243.200     12.54908      4.20000
    4247.400     12.54776      4.20000
    4251.600     12.54478      4.20000
    4255.800     12.54114      4.20000
    4260.000     12.53828      4.20000
    4264.200     12.53795      4.20000
    4268.400     12.54213      4.20000
    4272.600     12.54748      4.20000
    4276.800     12.55006      4.20000
    4281.000     12.55258      4.20000
    4285.200     12.55785      4.20000
    4289.400     12.56855      4.20000
    4293.600     12.58718      4.20000
    4297.800     12.60564      4.20000
    4302.000     12.61564      4.20000
    4306.200     12.61510      4.20000
    4310.400     12.60386      4.20000
    4314.600     12.58669      4.20000
    4318.800     12.56957      4.20000
    4323.000     12.56451      4.20000
    4327.200     12.57994      4.20000
    4331.400     12.61265      4.20000
    4335.600     12.65546      4.20000
    4339.800     12.68160      4.20000
    4344.000     12.67000      4.20000
    4348.200     12.63172      4.20000
    4352.400     12.58185      4.20000
    4356.600     12.53984      4.20000
    4360.800     12.51735      4.20000
    4365.000     12.50636      4.20000
    4369.200     12.50061      4.20000
    4373.400     12.49860      4.20000
    4377.600     12.49822      4.20000
    4381.800     12.49880      4.20000
    4386.000     12.49909      4.20000
    4390.200     12.49570      4.20000
    4394.400     12.48845      4.20000
    4398.600     12.48294      4.20000
    4402.800     12.48119      4.20000
    4407.000     12.47941      4.20000
    4411.200     12.47609      4.20000
    4415.400     12.47269      4.20000
    4419.600     12.46998      4.20000
    4423.800     12.46816      4.20000
    4428.000     12.46699      4.20000
    4432.200     12.46544      4.20000
    4436.400     12.46362      4.20000
    4440.600     12.46283      4.20000
    4444.800     12.46338      4.20000
    4449.000     12.46495      4.20000
    4453.200     12.46563      4.20000
    4457.400     12.46183      4.20000
    4461.600     12.45499      4.20000
    4465.800     12.45054      4.20000
    4470.000     12.44902      4.20000
    4474.200     12.44765      4.20000
    4478.400     12.44521      4.20000
    4482.600     12.44128      4.20000
    4486.800     12.43613      4.20000
    4491.000     12.43036      4.20000
    4495.200     12.42597      4.20000
    4499.400     12.42581      4.20000
    4503.600     12.42717      4.20000
    4507.800     12.42479      4.20000
    4512.000     12.41930      4.20000
    4516.200     12.41331      4.20000
    4520.400     12.41036      4.20000
    4524.600     12.41465      4.20000
    4528.800     12.42108      4.20000
    4533.000     12.42143      4.20000
    4537.200     12.41817      4.20000
    4541.400     12.41632      4.20000
    4545.600     12.41653      4.20000
    4549.800     12.41904      4.20000
    4554.000     12.41940      4.20000
    4558.200     12.41227      4.20000
    4562.400     12.40247      4.20000
    4566.600     12.39599      4.20000
    4570.800     12.39335      4.20000
    4575.000     12.39458      4.20000
    4579.200     12.39658      4.20000
    4583.400     12.39574      4.20000
    4587.600     12.39327      4.20000
    4591.800     12.39074      4.20000
    4596.000     12.38694      4.20000
    4600.200     12.38101      4.20000
    4604.400     12.37674      4.20000
    4608.600     12.37719      4.20000
    4612.800     12.37805      4.20000
    4617.000     12.37567      4.20000
    4621.200     12.37307      4.20000
    4625.400     12.37245      4.20000
    4629.600     12.37085      4.20000
    4633.800     12.36659      4.20000
    4638.000     12.36399      4.20000
    4642.200     12.36554      4.20000
    4646.400     12.36679      4.20000
    4650.600     12.36481      4.20000
    4654.800     12.36116      4.20000
    4659.000     12.35749      4.20000
    4663.200     12.35639      4.20000
    4667.400     12.35867      4.20000
    4671.600     12.36009      4.20000
    4675.800     12.35830      4.20000
    4680.000     12.35539      4.20000
    4684.200     12.35266      4.20000
    4688.400     12.34971      4.20000
    4692.600     12.34741      4.20000
    4696.800     12.34874      4.20000
    4701.000     12.35356      4.20000
    4705.200     12.35699      4.20000
    4709.400     12.35634      4.20000
    4713.600     12.35190      4.20000
    4717.800     12.34545      4.20000
    4722.000     12.34105      4.20000
    4726.200     12.33964      4.20000
    4730.400     12.33836      4.20000
    4734.600     12.33677      4.20000
    4738.800     12.33703      4.20000
    4743.000     12.33831      4.20000
    4747.200     12.33693      4.20000
    4751.400     12.33375      4.20000
    4755.600     12.33352      4.20000
    4759.800     12.33606      4.20000
    4764.000     12.33756      4.20000
    4768.200     12.33676      4.20000
    4772.400     12.33412      4.20000
    4776.600     12.33007      4.20000
    4780.800     12.32509      4.20000
    4785.000     12.32129      4.20000
    4789.200     12.32166      4.20000
    4793.400     12.32436      4.20000
    4797.600     12.32515      4.20000
    4801.800     12.32353      4.20000
    4806.000     12.32043      4.20000
    4810.200     12.31762      4.20000
    4814.400     12.31755      4.20000
    4818.600     12.31782      4.20000
    4822.800     12.31457      4.20000
    4827.000     12.30928      4.20000
    4831.200     12.30507      4.20000
    4835.400     12.30429      4.20000
    4839.600     12.30922      4.20000
    4843.800     12.32199      4.20000
    4848.000     12.34313      4.20000
    4852.200     12.37694      4.20000
    4856.400     12.42833      4.20000
    4860.600     12.47392      4.20000
    4864.800     12.48489      4.20000
    4869.000     12.46124      4.20000
    4873.200     12.41008      4.20000
    4877.400     12.35861      4.20000
    4881.600     12.33134      4.20000
    4885.800     12.31933      4.20000
    4890.000     12.31335      4.20000
    4894.200     12.30842      4.20000
    4898.400     12.29911      4.20000
    4902.600     12.28993      4.20000
    4906.800     12.28519      4.20000
    4911.000     12.28473      4.20000
    4915.200     12.28810      4.20000
    4919.400     12.29130      4.20000
    4923.600     12.29096      4.20000
    4927.800     12.28768      4.20000
    4932.000     12.28256      4.20000
    4936.200     12.27868      4.20000
    4940.400     12.27791      4.20000
    4944.600     12.27692      4.20000
    4948.800     12.27362      4.20000
    4953.000     12.27008      4.20000
    4957.200     12.26765      4.20000
    4961.400     12.26640      4.20000
    4965.600     12.26595      4.20000
    4969.800     12.26429      4.20000
    4974.000     12.26107      4.20000
    4978.200     12.25989      4.20000
    4982.400     12.26203      4.20000
    4986.600     12.26452      4.20000
    4990.800     12.26568      4.20000
    4995.000     12.26562      4.20000
    4999.200     12.26483      4.20000
    5003.400     12.26458      4.20000
    5007.600     12.26533      4.20000
    5011.800     12.26641      4.20000
    5016.000     12.26695      4.20000
    5020.200     12.26569      4.20000
    5024.400     12.26276      4.20000
    5028.600     12.25984      4.20000
    5032.800     12.25769      4.20000
    5037.000     12.25613      4.20000
    5041.200     12.25490      4.20000
    5045.400     12.25361      4.20000
    5049.600     12.25175      4.20000
    5053.800     12.24880      4.20000
    5058.000     12.24496      4.20000
    5062.200     12.24085      4.20000
    5066.400     12.23799      4.20000
    5070.600     12.23851      4.20000
    5074.800     12.24163      4.20000
    5079.000     12.24498      4.20000
    5083.200     12.24645      4.20000
    5087.400     12.24404      4.20000
    5091.600     12.23900      4.20000
    5095.800     12.23413      4.20000
    5100.000     12.23068      4.20000
    5104.200     12.22939      4.20000
    5108.400     12.22869      4.20000
    5112.600     12.22611      4.20000
    5116.800     12.22259      4.20000
    5121.000     12.21993      4.20000
    5125.200     12.21997      4.20000
    5129.400     12.22455      4.20000
    5133.600     12.23059      4.20000
    5137.800     12.23386      4.20000
    5142.000     12.23349      4.20000
    5146.200     12.22964      4.20000
    5150.400     12.22423      4.20000
    5154.600     12.21923      4.20000
    5158.800     12.22017      4.20000
    5163.000     12.23249      4.20000
    5167.200     12.24829      4.20000
    5171.400     12.25837      4.20000
    5175.600     12.26087      4.20000
    5179.800     12.25453      4.20000
    5184.000     12.24605      4.20000
    5188.200     12.24227      4.20000
    5192.400     12.23860      4.20000
    5196.600     12.23104      4.20000
    5200.800     12.22387      4.20000
    5205.000     12.22033      4.20000
    5209.200     12.21791      4.20000
    5213.400     12.21471      4.20000
    5217.600     12.21156      4.20000
    5221.800     12.20910      4.20000
    5226.000     12.20852      4.20000
    5230.200     12.21002      4.20000
    5234.400     12.20904      4.20000
    5238.600     12.20289      4.20000
    5242.800     12.19479      4.20000
    5247.000     12.18775      4.20000
    5251.200     12.18387      4.20000
    5255.400     12.18479      4.20000
    5259.600     12.19124      4.20000
    5263.800     12.20185      4.20000
    5268.000     12.21117      4.20000
    5272.200     12.21497      4.20000
    5276.400     12.21182      4.20000
    5280.600     12.20267      4.20000
    5284.800     12.19227      4.20000
    5289.000     12.18399      4.20000
    5293.200     12.17858      4.20000
    5297.400     12.17618      4.20000
    5301.600     12.17610      4.20000
    5305.800     12.17702      4.20000
    5310.000     12.17685      4.20000
    5314.200     12.17562      4.20000
    5318.400     12.17584      4.20000
    5322.600     12.17809      4.20000
    5326.800     12.18100      4.20000
    5331.000     12.18311      4.20000
    5335.200     12.18265      4.20000
    5339.400     12.17957      4.20000
    5343.600     12.17551      4.20000
    5347.800     12.17090      4.20000
    5352.000     12.16513      4.20000
    5356.200     12.15995      4.20000
    5360.400     12.15864      4.20000
    5364.600     12.16075      4.20000
    5368.800     12.16376      4.20000
    5373.000     12.16531      4.20000
    5377.200     12.16302      4.20000
    5381.400     12.15878      4.20000
    5385.600     12.15669      4.20000
    5389.800     12.15731      4.20000
    5394.000     12.15965      4.20000
    5398.200     12.16242      4.20000
    5402.400     12.16401      4.20000
    5406.600     12.16402      4.20000
    5410.800     12.16255      4.20000
    5415.000     12.16016      4.20000
    5419.200     12.15753      4.20000
    5423.400     12.15510      4.20000
    5427.600     12.15342      4.20000
    5431.800     12.15090      4.20000
    5436.000     12.14537      4.20000
    5440.200     12.14085      4.20000
    5444.400     12.14216      4.20000
    5448.600     12.14589      4.20000
    5452.800     12.14781      4.20000
    5457.000     12.14662      4.20000
    5461.200     12.14121      4.20000
    5465.400     12.13611      4.20000
    5469.600     12.13613      4.20000
    5473.800     12.13826      4.20000
    5478.000     12.13935      4.20000
    5482.200     12.13890      4.20000
    5486.400     12.13650      4.20000
    5490.600     12.13337      4.20000
    5494.800     12.13081      4.20000
    5499.000     12.13039      4.20000
    5503.200     12.13302      4.20000
    5507.400     12.13547      4.20000
    5511.600     12.13505      4.20000
    5515.800     12.13188      4.20000
    5520.000     12.12660      4.20000
    5524.200     12.12247      4.20000
    5528.400     12.12160      4.20000
    5532.600     12.12157      4.20000
    5536.800     12.12060      4.20000
    5541.000     12.11887      4.20000
    5545.200     12.11676      4.20000
    5549.400     12.11567      4.20000
    5553.600     12.11623      4.20000
    5557.800     12.11702      4.20000
    5562.000     12.11723      4.20000
    5566.200     12.11712      4.20000
    5570.400     12.11719      4.20000
    5574.600     12.11840      4.20000
    5578.800     12.12105      4.20000
    5583.000     12.12416      4.20000
    5587.200     12.12675      4.20000
    5591.400     12.12799      4.20000
    5595.600     12.12696      4.20000
    5599.800     12.12233      4.20000
    5604.000     12.11548      4.20000
    5608.200     12.11098      4.20000
    5612.400     12.11034      4.20000
    5616.600     12.11188      4.20000
    5620.800     12.11359      4.20000
    5625.000     12.11284      4.20000
    5629.200     12.10962      4.20000
    5633.400     12.10648      4.20000
    5637.600     12.10451      4.20000
    5641.800     12.10371      4.20000
    5646.000     12.10369      4.20000
    5650.200     12.10353      4.20000
    5654.400     12.10347      4.20000
    5658.600     12.10463      4.20000
    5662.800     12.10633      4.20000
    5667.000     12.10683      4.20000
    5671.200     12.10616      4.20000
    5675.400     12.10518      4.20000
    5679.600     12.10473      4.20000
    5683.800     12.10583      4.20000
    5688.000     12.10731      4.20000
    5692.200     12.10701      4.20000
    5696.400     12.10582      4.20000
    5700.600     12.10571      4.20000
    5704.800     12.10659      4.20000
    5709.000     12.10778      4.20000
    5713.200     12.10851      4.20000
    5717.400     12.10785      4.20000
    5721.600     12.10641      4.20000
    5725.800     12.10513      4.20000
    5730.000     12.10428      4.20000
    5734.200     12.10416      4.20000
    5738.400     12.10336      4.20000
    5742.600     12.09999      4.20000
    5746.800     12.09754      4.20000
    5751.000     12.10004      4.20000
    5755.200     12.10325      4.20000
    5759.400     12.10241      4.20000
    5763.600     12.09954      4.20000
    5767.800     12.09684      4.20000
    5772.000     12.09473      4.20000
    5776.200     12.09368      4.20000
    5780.400     12.09337      4.20000
    5784.600     12.09329      4.20000
    5788.800     12.09245      4.20000
    5793.000     12.09007      4.20000
    5797.200     12.08657      4.20000
    5801.400     12.08255      4.20000
    5805.600     12.07884      4.20000
    5809.800     12.07619      4.20000
    5814.000     12.07534      4.20000
    5818.200     12.07634      4.20000
    5822.400     12.07651      4.20000
    5826.600     12.07407      4.20000
    5830.800     12.07026      4.20000
    5835.000     12.06647      4.20000
    5839.200     12.06483      4.20000
    5843.400     12.06619      4.20000
    5847.600     12.06782      4.20000
    5851.800     12.06811      4.20000
    5856.000     12.06866      4.20000
    5860.200     12.06962      4.20000
    5864.400     12.06788      4.20000
    5868.600     12.06358      4.20000
    5872.800     12.06229      4.20000
    5877.000     12.06703      4.20000
    5881.200     12.07724      4.20000
    5885.400     12.09028      4.20000
    5889.600     12.10038      4.20000
    5893.800     12.10357      4.20000
    5898.000     12.09861      4.20000
    5902.200     12.08761      4.20000
    5906.400     12.07642      4.20000
    5910.600     12.06854      4.20000
    5914.800     12.06516      4.20000
    5919.000     12.06474      4.20000
    5923.200     12.06256      4.20000
    5927.400     12.05885      4.20000
    5931.600     12.05813      4.20000
    5935.800     12.06123      4.20000
    5940.000     12.06663      4.20000
    5944.200     12.07114      4.20000
    5948.400     12.07000      4.20000
    5952.600     12.06459      4.20000
    5956.800     12.06027      4.20000
    5961.000     12.05863      4.20000
    5965.200     12.05938      4.20000
    5969.400     12.06058      4.20000
    5973.600     12.05918      4.20000
    5977.800     12.05600      4.20000
    5982.000     12.05359      4.20000
    5986.200     12.05282      4.20000
    5990.400     12.05405      4.20000
    5994.600     12.05574      4.20000
    5998.800     12.05559      4.20000
    6003.000     12.05382      4.20000
    6007.200     12.05157      4.20000
    6011.400     12.04920      4.20000
    6015.600     12.04682      4.20000
    6019.800     12.04629      4.20000
    6024.000     12.04983      4.20000
    6028.200     12.05371      4.20000
    6032.400     12.05319      4.20000
    6036.600     12.04994      4.20000
    6040.800     12.04646      4.20000
    6045.000     12.04397      4.20000
    6049.200     12.04362      4.20000
    6053.400     12.04453      4.20000
    6057.600     12.04569      4.20000
    6061.800     12.04521      4.20000
    6066.000     12.04117      4.20000
    6070.200     12.03840      4.20000
    6074.400     12.04127      4.20000
    6078.600     12.04494      4.20000
    6082.800     12.04508      4.20000
    6087.000     12.04355      4.20000
    6091.200     12.04194      4.20000
    6095.400     12.04075      4.20000
    6099.600     12.04048      4.20000
    6103.800     12.04037      4.20000
    6108.000     12.03978      4.20000
    6112.200     12.03874      4.20000
    6116.400     12.03753      4.20000
    6120.600     12.03800      4.20000
    6124.800     12.04103      4.20000
    6129.000     12.04444      4.20000
    6133.200     12.04649      4.20000
    6137.400     12.04686      4.20000
    6141.600     12.04542      4.20000
    6145.800     12.04214      4.20000
    6150.000     12.03816      4.20000
    6154.200     12.03708      4.20000
    6158.400     12.04005      4.20000
    6162.600     12.04355      4.20000
    6166.800     12.04506      4.20000
    6171.000     12.04373      4.20000
    6175.200     12.04005      4.20000
    6179.400     12.03689      4.20000
    6183.600     12.03560      4.20000
    6187.800     12.03531      4.20000
    6192.000     12.03540      4.20000
    6196.200     12.03563      4.20000
    6200.400     12.03517      4.20000
    6204.600     12.03248      4.20000
    6208.800     12.02835      4.20000
    6213.000     12.02589      4.20000
    6217.200     12.02594      4.20000
    6221.400     12.02736      4.20000
    6225.600     12.02923      4.20000
    6229.800     12.03065      4.20000
    6234.000     12.03142      4.20000
    6238.200     12.03192      4.20000
    6242.400     12.03258      4.20000
    6246.600     12.03405      4.20000
    6250.800     12.03533      4.20000
    6255.000     12.03426      4.20000
    6259.200     12.03235      4.20000
    6263.400     12.03288      4.20000
    6267.600     12.03705      4.20000
    6271.800     12.04524      4.20000
    6276.000     12.03980      4.20000
    6280.200     12.03446      4.20000
    6284.400     12.03440      4.20000
    6288.600     12.03355      4.20000
    6292.800     12.03326      4.20000
    6297.000     12.03753      4.20000
    6301.200     12.04138      4.20000
    6305.400     12.03830      4.20000
    6309.600     12.03487      4.20000
    6313.800     12.03347      4.20000
    6318.000     12.03263      4.20000
    6322.200     12.03042      4.20000
    6326.400     12.02687      4.20000
    6330.600     12.02227      4.20000
    6334.800     12.01862      4.20000
    6339.000     12.01806      4.20000
    6343.200     12.01912      4.20000
    6347.400     12.01990      4.20000
    6351.600     12.02019      4.20000
    6355.800     12.01978      4.20000
    6360.000     12.01850      4.20000
    6364.200     12.01638      4.20000
    6368.400     12.01373      4.20000
    6372.600     12.01095      4.20000
    6376.800     12.00933      4.20000
    6381.000     12.00987      4.20000
    6385.200     12.01141      4.20000
    6389.400     12.01284      4.20000
    6393.600     12.01443      4.20000
    6397.800     12.01619      4.20000
    6402.000     12.01634      4.20000
    6406.200     12.01396      4.20000
    6410.400     12.01179      4.20000
    6414.600     12.01152      4.20000
    6418.800     12.01101      4.20000
    6423.000     12.00887      4.20000
    6427.200     12.00559      4.20000
    6431.400     12.00191      4.20000
    6435.600     11.99977      4.20000
    6439.800     12.00007      4.20000
    6444.000     12.00133      4.20000
    6448.200     12.00248      4.20000
    6452.400     12.00343      4.20000
    6456.600     12.00402      4.20000
    6460.800     12.00399      4.20000
    6465.000     12.00360      4.20000
    6469.200     12.00394      4.20000
    6473.400     12.00509      4.20000
    6477.600     12.00558      4.20000
    6481.800     12.00498      4.20000
    6486.000     12.00414      4.20000
    6490.200     12.00373      4.20000
    6494.400     12.00446      4.20000
    6498.600     12.00562      4.20000
    6502.800     12.00468      4.20000
    6507.000     12.00337      4.20000
    6511.200     12.00013      4.20000
    6515.400     11.99892      4.20000
    6519.600     11.99902      4.20000
    6523.800     11.99993      4.20000
    6528.000     12.00039      4.20000
    6532.200     11.99976      4.20000
    6536.400     12.00068      4.20000
    6540.600     12.00558      4.20000
    6544.800     12.01437      4.20000
    6549.000     12.02980      4.20000
    6553.200     12.05762      4.20000
    6557.400     12.10241      4.20000
    6561.600     12.16040      4.20000
    6565.800     12.19781      4.20000
    6570.000     12.17571      4.20000
    6574.200     12.11357      4.20000
    6578.400     12.05638      4.20000
    6582.600     12.02067      4.20000
    6586.800     12.00308      4.20000
    6591.000     11.99609      4.20000
    6595.200     11.99494      4.20000
    6599.400     11.99545      4.20000
    6603.600     11.99190      4.20000
    6607.800     11.98554      4.20000
    6612.000     11.98222      4.20000
    6616.200     11.98170      4.20000
    6620.400     11.98039      4.20000
    6624.600     11.97858      4.20000
    6628.800     11.97798      4.20000
    6633.000     11.97710      4.20000
    6637.200     11.97428      4.20000
    6641.400     11.97211      4.20000
    6645.600     11.97302      4.20000
    6649.800     11.97363      4.20000
    6654.000     11.97162      4.20000
    6658.200     11.97059      4.20000
    6662.400     11.97149      4.20000
    6666.600     11.97123      4.20000
    6670.800     11.96967      4.20000
    6675.000     11.96825      4.20000
    6679.200     11.96648      4.20000
    6683.400     11.96507      4.20000
    6687.600     11.96517      4.20000
    6691.800     11.96588      4.20000
    6696.000     11.96647      4.20000
    6700.200     11.96630      4.20000
    6704.400     11.96514      4.20000
    6708.600     11.96516      4.20000
    6712.800     11.96701      4.20000
    6717.000     11.96739      4.20000
    6721.200     11.96484      4.20000
    6725.400     11.96205      4.20000
    6729.600     11.96084      4.20000
    6733.800     11.96065      4.20000
    6738.000     11.96058      4.20000
    6742.200     11.96024      4.20000
    6746.400     11.95928      4.20000
    6750.600     11.95957      4.20000
    6754.800     11.96036      4.20000
    6759.000     11.96116      4.20000
    6763.200     11.96152      4.20000
    6767.400     11.96035      4.20000
    6771.600     11.95815      4.20000
    6775.800     11.95806      4.20000
    6780.000     11.96020      4.20000
    6784.200     11.96026      4.20000
    6788.400     11.95823      4.20000
    6792.600     11.95821      4.20000
    6796.800     11.95929      4.20000
    6801.000     11.95907      4.20000
    6805.200     11.95880      4.20000
    6809.400     11.95918      4.20000
    6813.600     11.95877      4.20000
    6817.800     11.95662      4.20000
    6822.000     11.95455      4.20000
    6826.200     11.95465      4.20000
    6830.400     11.95624      4.20000
    6834.600     11.95788      4.20000
    6838.800     11.95897      4.20000
    6843.000     11.95941      4.20000
    6847.200     11.95994      4.20000
    6851.400     11.96186      4.20000
    6855.600     11.97379      4.20000
    6859.800     11.96794      4.20000
    6864.000     11.97206      4.20000
    6868.200     11.97047      4.20000
    6872.400     11.96800      4.20000
    6876.600     11.96396      4.20000
    6880.800     11.95918      4.20000
    6885.000     11.95957      4.20000
    6889.200     11.96106      4.20000
    6893.400     11.96093      4.20000
    6897.600     11.96169      4.20000
    6901.800     11.96286      4.20000
    6906.000     11.96325      4.20000
    6910.200     11.96204      4.20000
    6914.400     11.96036      4.20000
    6918.600     11.96272      4.20000
    6922.800     11.96662      4.20000
    6927.000     11.97023      4.20000
    6931.200     11.97585      4.20000
    6935.400     11.97990      4.20000
    6939.600     11.97890      4.20000
    6943.800     11.97569      4.20000
    6948.000     11.97125      4.20000
    6952.200     11.96759      4.20000
    6956.400     11.96559      4.20000
    6960.600     11.96358      4.20000
    6964.800     11.95893      4.20000
    6969.000     11.95400      4.20000
    6973.200     11.95213      4.20000
    6977.400     11.95348      4.20000
    6981.600     11.95736      4.20000
    6985.800     11.96191      4.20000
    6990.000     11.96432      4.20000
    6994.200     11.96333      4.20000
    6998.400     11.96090      4.20000
    7002.600     11.95991      4.20000
    7006.800     11.96117      4.20000
    7011.000     11.96239      4.20000
    7015.200     11.96142      4.20000
    7019.400     11.96050      4.20000
    7023.600     11.95990      4.20000
    7027.800     11.95826      4.20000
    7032.000     11.95680      4.20000
    7036.200     11.95604      4.20000
    7040.400     11.95525      4.20000
    7044.600     11.95425      4.20000
    7048.800     11.95265      4.20000
    7053.000     11.95093      4.20000
    7057.200     11.95015      4.20000
    7061.400     11.94960      4.20000
    7065.600     11.94850      4.20000
    7069.800     11.94830      4.20000
    7074.000     11.94843      4.20000
    7078.200     11.94736      4.20000
    7082.400     11.94705      4.20000
    7086.600     11.94805      4.20000
    7090.800     11.94830      4.20000
    7095.000     11.94780      4.20000
    7099.200     11.94822      4.20000
    7103.400     11.94883      4.20000
    7107.600     11.94817      4.20000
    7111.800     11.94678      4.20000
    7116.000     11.94540      4.20000
    7120.200     11.94442      4.20000
    7124.400     11.94410      4.20000
    7128.600     11.94525      4.20000
    7132.800     11.94776      4.20000
    7137.000     11.94946      4.20000
    7141.200     11.94944      4.20000
    7145.400     11.95015      4.20000
    7149.600     11.95208      4.20000
    7153.800     11.95498      4.20000
    7158.000     11.96093      4.20000
    7162.200     11.96040      4.20000
    7166.400     11.95418      4.20000
    7170.600     11.95048      4.20000
    7174.800     11.95079      4.20000
    7179.000     11.95063      4.20000
    7183.200     11.95131      4.20000
    7187.400     11.95185      4.20000
    7191.600     11.95155      4.20000
    7195.800     11.95096      4.20000
    7200.000     11.95082      4.20000
    7204.200     11.94953      4.20000
    7208.400     11.94551      4.20000
    7212.600     11.94500      4.20000
    7216.800     11.95033      4.20000
    7221.000     11.94891      4.20000
    7225.200     11.94722      4.20000
    7229.400     11.94427      4.20000
    7233.600     11.94593      4.20000
    7237.800     11.94673      4.20000
    7242.000     11.94727      4.20000
    7246.200     11.94644      4.20000
    7250.400     11.94299      4.20000
    7254.600     11.94061      4.20000
    7258.800     11.94078      4.20000
    7263.000     11.94037      4.20000
    7267.200     11.93962      4.20000
    7271.400     11.94100      4.20000
    7275.600     11.94332      4.20000
    7279.800     11.94475      4.20000
    7284.000     11.94511      4.20000
    7288.200     11.94443      4.20000
    7292.400     11.94207      4.20000
    7296.600     11.94142      4.20000
    7300.800     11.94102      4.20000
    7305.000     11.93984      4.20000
    7309.200     11.94384      4.20000
    7313.400     11.94626      4.20000
    7317.600     11.95046      4.20000
    7321.800     11.95175      4.20000
    7326.000     11.95247      4.20000
    7330.200     11.95418      4.20000
    7334.400     11.95705      4.20000
    7338.600     11.95583      4.20000
    7342.800     11.95285      4.20000
    7347.000     11.94959      4.20000
    7351.200     11.94711      4.20000
    7355.400     11.94652      4.20000
    7359.600     11.94810      4.20000
    7363.800     11.94967      4.20000
    7368.000     11.94956      4.20000
    7372.200     11.94699      4.20000
    7376.400     11.94329      4.20000
    7380.600     11.94125      4.20000
    7384.800     11.94217      4.20000
    7389.000     11.94456      4.20000
    7393.200     11.94602      4.20000
    7397.400     11.94476      4.20000
    7401.600     11.94193      4.20000
    7405.800     11.94024      4.20000
    7410.000     11.94037      4.20000
    7414.200     11.94160      4.20000
    7418.400     11.94257      4.20000
    7422.600     11.94224      4.20000
    7426.800     11.94093      4.20000
    7431.000     11.93937      4.20000
    7435.200     11.93720      4.20000
    7439.400     11.93535      4.20000
    7443.600     11.93485      4.20000
    7447.800     11.93484      4.20000
    7452.000     11.93486      4.20000
    7456.200     11.93574      4.20000
    7460.400     11.93734      4.20000
    7464.600     11.93759      4.20000
    7468.800     11.93661      4.20000
    7473.000     11.93642      4.20000
    7477.200     11.93702      4.20000
    7481.400     11.93624      4.20000
    7485.600     11.93364      4.20000
    7489.800     11.93133      4.20000
    7494.000     11.93100      4.20000
    7498.200     11.93228      4.20000
    7502.400     11.93328      4.20000
    7506.600     11.92760      4.20000
    7510.800     11.92518      4.20000
    7515.000     11.92423      4.20000
    7519.200     11.92347      4.20000
    7523.400     11.92318      4.20000
    7527.600     11.92440      4.20000
    7531.800     11.92571      4.20000
    7536.000     11.92746      4.20000
    7540.200     11.92963      4.20000
    7544.400     11.92789      4.20000
    7548.600     11.92387      4.20000
    7552.800     11.92310      4.20000
    7557.000     11.92528      4.20000
    7561.200     11.92794      4.20000
    7565.400     11.92898      4.20000
    7569.600     11.92741      4.20000
    7573.800     11.92640      4.20000
    7578.000     11.93275      4.20000
    7582.200     11.92839      4.20000
    7586.400     11.92999      4.20000
    7590.600     11.94285      4.20000
    7594.800     11.95118      4.20000
    7599.000     11.94234      4.20000
    7603.200     11.92021      4.20000
    7607.400     11.90119      4.20000
    7611.600     11.89597      4.20000
    7615.800     11.89493      4.20000
    7620.000     11.90317      4.20000
    7624.200     11.91693      4.20000
    7628.400     11.91886      4.20000
    7632.600     11.91097      4.20000
    7636.800     11.90590      4.20000
    7641.000     11.90330      4.20000
    7645.200     11.90414      4.20000
    7649.400     11.90926      4.20000
    7653.600     11.91365      4.20000
    7657.800     11.91459      4.20000
    7662.000     11.91646      4.20000
    7666.200     11.92147      4.20000
    7670.400     11.92492      4.20000
    7674.600     11.92535      4.20000
    7678.800     11.92506      4.20000
    7683.000     11.92274      4.20000
    7687.200     11.93043      4.20000
    7691.400     11.93138      4.20000
    7695.600     11.93360      4.20000
    7699.800     11.93002      4.20000
    7704.000     11.92594      4.20000
    7708.200     11.92251      4.20000
    7712.400     11.91933      4.20000
    7716.600     11.91607      4.20000
    7720.800     11.91333      4.20000
    7725.000     11.91198      4.20000
    7729.200     11.91282      4.20000
    7733.400     11.91437      4.20000
    7737.600     11.91410      4.20000
    7741.800     11.91257      4.20000
    7746.000     11.91211      4.20000
    7750.200     11.91307      4.20000
    7754.400     11.91277      4.20000
    7758.600     11.90956      4.20000
    7762.800     11.90826      4.20000
    7767.000     11.91067      4.20000
    7771.200     11.91185      4.20000
    7775.400     11.91057      4.20000
    7779.600     11.91141      4.20000
    7783.800     11.91376      4.20000
    7788.000     11.91287      4.20000
    7792.200     11.91042      4.20000
    7796.400     11.90965      4.20000
    7800.600     11.90928      4.20000
    7804.800     11.90739      4.20000
    7809.000     11.90455      4.20000
    7813.200     11.90364      4.20000
    7817.400     11.90481      4.20000
    7821.600     11.90308      4.20000
    7825.800     11.90185      4.20000
    7830.000     11.90501      4.20000
    7834.200     11.90614      4.20000
    7838.400     11.90152      4.20000
    7842.600     11.89628      4.20000
    7846.800     11.89675      4.20000
    7851.000     11.90081      4.20000
    7855.200     11.90140      4.20000
    7859.400     11.89840      4.20000
    7863.600     11.89760      4.20000
    7867.800     11.90036      4.20000
    7872.000     11.90382      4.20000
    7876.200     11.90588      4.20000
    7880.400     11.90577      4.20000
    7884.600     11.90447      4.20000
    7888.800     11.90578      4.20000
    7893.000     11.90911      4.20000
    7897.200     11.90894      4.20000
    7901.400     11.90580      4.20000
    7905.600     11.90424      4.20000
    7909.800     11.90502      4.20000
    7914.000     11.90534      4.20000
    7918.200     11.90419      4.20000
    7922.400     11.90277      4.20000
    7926.600     11.90266      4.20000
    7930.800     11.90324      4.20000
    7935.000     11.90333      4.20000
    7939.200     11.90215      4.20000
    7943.400     11.90041      4.20000
    7947.600     11.90047      4.20000
    7951.800     11.90177      4.20000
    7956.000     11.90254      4.20000
    7960.200     11.90387      4.20000
    7964.400     11.90586      4.20000
    7968.600     11.90475      4.20000
    7972.800     11.90028      4.20000
    7977.000     11.89875      4.20000
    7981.200     11.89939      4.20000
    7985.400     11.89718      4.20000
    7989.600     11.89612      4.20000
    7993.800     11.89824      4.20000
    7998.000     11.89989      4.20000
    8002.200     11.90075      4.20000
    8006.400     11.90182      4.20000
    8010.600     11.90054      4.20000
    8014.800     11.89733      4.20000
    8019.000     11.89742      4.20000
    8023.200     11.90003      4.20000
    8027.400     11.90129      4.20000
    8031.600     11.90172      4.20000
    8035.800     11.90078      4.20000
    8040.000     11.90104      4.20000
    8044.200     11.90437      4.20000
    8048.400     11.90496      4.20000
    8052.600     11.89979      4.20000
    8056.800     11.89525      4.20000
    8061.000     11.89622      4.20000
    8065.200     11.89828      4.20000
    8069.400     11.89867      4.20000
    8073.600     11.89859      4.20000
    8077.800     11.89796      4.20000
    8082.000     11.89806      4.20000
    8086.200     11.89894      4.20000
    8090.400     11.89935      4.20000
    8094.600     11.89860      4.20000
    8098.800     11.89808      4.20000
    8103.000     11.89894      4.20000
    8107.200     11.90157      4.20000
    8111.400     11.90516      4.20000
    8115.600     11.90908      4.20000
    8119.800     11.91333      4.20000
    8124.000     11.91704      4.20000
    8128.200     11.91658      4.20000
    8132.400     11.91044      4.20000
    8136.600     11.90884      4.20000
    8140.800     11.90850      4.20000
    8145.000     11.90813      4.20000
    8149.200     11.90694      4.20000
    8153.400     11.90569      4.20000
    8157.600     11.90579      4.20000
    8161.800     11.90615      4.20000
    8166.000     11.90598      4.20000
    8170.200     11.90745      4.20000
    8174.400     11.90649      4.20000
    8178.600     11.90433      4.20000
    8182.800     11.90185      4.20000
    8187.000     11.90412      4.20000
    8191.200     11.90604      4.20000
    8195.400     11.90243      4.20000
    8199.600     11.89857      4.20000
    8203.800     11.90431      4.20000
    8208.000     11.91313      4.20000
    8212.200     11.91207      4.20000
    8216.400     11.89874      4.20000
    8220.600     11.89590      4.20000
    8224.800     11.90349      4.20000
    8229.000     11.90774      4.20000
    8233.200     11.90595      4.20000
    8237.400     11.90172      4.20000
    8241.600     11.90103      4.20000
    8245.800     11.90824      4.20000
    8250.000     11.91167      4.20000
    8254.200     11.91383      4.20000
    8258.400     11.91270      4.20000
    8262.600     11.91293      4.20000
    8266.800     11.91212      4.20000
    8271.000     11.90930      4.20000
    8275.200     11.90234      4.20000
    8279.400     11.90001      4.20000
    8283.600     11.90180      4.20000
    8287.800     11.90117      4.20000
    8292.000     11.90389      4.20000
    8296.200     11.90315      4.20000
    8300.400     11.90678      4.20000
    8304.600     11.90749      4.20000
    8308.800     11.90708      4.20000
    8313.000     11.90822      4.20000
    8317.200     11.91195      4.20000
    8321.400     11.91385      4.20000
    8325.600     11.91830      4.20000
    8329.800     11.91812      4.20000
    8334.000     11.92199      4.20000
    8338.200     11.92122      4.20000
    8342.400     11.91493      4.20000
    8346.600     11.91166      4.20000
    8350.800     11.91046      4.20000
    8355.000     11.91363      4.20000
    8359.200     11.91250      4.20000
    8363.400     11.90664      4.20000
    8367.600     11.90215      4.20000
    8371.800     11.90048      4.20000
    8376.000     11.90070      4.20000
    8380.200     11.90195      4.20000
    8384.400     11.90279      4.20000
    8388.600     11.90214      4.20000
    8392.800     11.90181      4.20000
    8397.000     11.90314      4.20000
    8401.200     11.90340      4.20000
    8405.400     11.89908      4.20000
    8409.600     11.89497      4.20000
    8413.800     11.89713      4.20000
    8418.000     11.90132      4.20000
    8422.200     11.90131      4.20000
    8426.400     11.89680      4.20000
    8430.600     11.89403      4.20000
    8434.800     11.89663      4.20000
    8439.000     11.90116      4.20000
    8443.200     11.90063      4.20000
    8447.400     11.89816      4.20000
    8451.600     11.90147      4.20000
    8455.800     11.90493      4.20000
    8460.000     11.90055      4.20000
    8464.200     11.89444      4.20000
    8468.400     11.89626      4.20000
    8472.600     11.90011      4.20000
    8476.800     11.89855      4.20000
    8481.000     11.89691      4.20000
    8485.200     11.89863      4.20000
    8489.400     11.90262      4.20000
    8493.600     11.91085      4.20000
    8497.800     11.92312      4.20000
    8502.000     11.93181      4.20000
    8506.200     11.93082      4.20000
    8510.400     11.92095      4.20000
    8514.600     11.90895      4.20000
    8518.800     11.90024      4.20000
    8523.000     11.89742      4.20000
    8527.200     11.90108      4.20000
    8531.400     11.90666      4.20000
    8535.600     11.91622      4.20000
    8539.800     11.94043      4.20000
    8544.000     11.97207      4.20000
    8548.200     11.98543      4.20000
    8552.400     11.96773      4.20000
    8556.600     11.93469      4.20000
    8560.800     11.90935      4.20000
    8565.000     11.89869      4.20000
    8569.200     11.89670      4.20000
    8573.400     11.89813      4.20000
    8577.600     11.89890      4.20000
    8581.800     11.89709      4.20000
    8586.000     11.89539      4.20000
    8590.200     11.89848      4.20000
    8594.400     11.90570      4.20000
    8598.600     11.90975      4.20000
    8602.800     11.90733      4.20000
    8607.000     11.90303      4.20000
    8611.200     11.90003      4.20000
    8615.400     11.89914      4.20000
    8619.600     11.90130      4.20000
    8623.800     11.90221      4.20000
    8628.000     11.89874      4.20000
    8632.200     11.89278      4.20000
    8636.400     11.88987      4.20000
    8640.600     11.89118      4.20000
    8644.800     11.89548      4.20000
    8649.000     11.90360      4.20000
    8653.200     11.91263      4.20000
    8657.400     11.92497      4.20000
    8661.600     11.94607      4.20000
    8665.800     11.96762      4.20000
    8670.000     11.97057      4.20000
    8674.200     11.95007      4.20000
    8678.400     11.92189      4.20000
    8682.600     11.90503      4.20000
    8686.800     11.90117      4.20000
    8691.000     11.89840      4.20000
    8695.200     11.89495      4.20000
    8699.400     11.89624      4.20000
    8703.600     11.89913      4.20000
    8707.800     11.89816      4.20000
    8712.000     11.89570      4.20000
    8716.200     11.89533      4.20000
    8720.400     11.89651      4.20000
    8724.600     11.89919      4.20000
    8728.800     11.90246      4.20000
    8733.000     11.90450      4.20000
    8737.200     11.90479      4.20000
    8741.400     11.90499      4.20000
    8745.600     11.90570      4.20000
    8749.800     11.90878      4.20000
    8754.000     11.91508      4.20000
    8758.200     11.91916      4.20000
    8762.400     11.91598      4.20000
    8766.600     11.90940      4.20000
    8770.800     11.90765      4.20000
    8775.000     11.90800      4.20000
    8779.200     11.90536      4.20000
    8783.400     11.90071      4.20000
    8787.600     11.89666      4.20000
    8791.800     11.89521      4.20000
    8796.000     11.89676      4.20000
    8800.200     11.89873      4.20000
    8804.400     11.89803      4.20000
    8808.600     11.90009      4.20000
    8812.800     11.90828      4.20000
    8817.000     11.91306      4.20000
    8821.200     11.91120      4.20000
    8825.400     11.90859      4.20000
    8829.600     11.90674      4.20000
    8833.800     11.90463      4.20000
    8838.000     11.90142      4.20000
    8842.200     11.89797      4.20000
    8846.400     11.89958      4.20000
    8850.600     11.90775      4.20000
    8854.800     11.91497      4.20000
    8859.000     11.91564      4.20000
    8863.200     11.91707      4.20000
    8867.400     11.92935      4.20000
    8871.600     11.93847      4.20000
    8875.800     11.92927      4.20000
    8880.000     11.91563      4.20000
    8884.200     11.90911      4.20000
    8888.400     11.90661      4.20000
    8892.600     11.90385      4.20000
    8896.800     11.90445      4.20000
    8901.000     11.90841      4.20000
    8905.200     11.91138      4.20000
    8909.400     11.91185      4.20000
    8913.600     11.91021      4.20000
    8917.800     11.91162      4.20000
    8922.000     11.91552      4.20000
    8926.200     11.91836      4.20000
    8930.400     11.92213      4.20000
    8934.600     11.92622      4.20000
    8938.800     11.92673      4.20000
    8943.000     11.92706      4.20000
    8947.200     11.93226      4.20000
    8951.400     11.93237      4.20000
    8955.600     11.94016      4.20000
    8959.800     11.95415      4.20000
    8964.000     11.96429      4.20000
    8968.200     11.96535      4.20000
    8972.400     11.96369      4.20000
    8976.600     11.96078      4.20000
    8980.800     11.95621      4.20000
    8985.000     11.94575      4.20000
    8989.200     11.93925      4.20000
    8993.400     11.93773      4.20000
    8997.600     11.93011      4.20000
    9001.800     11.93069      4.20000
    9006.000     11.93916      4.20000
    9010.200     11.94505      4.20000
    9014.400     11.94991      4.20000
    9018.600     11.95483      4.20000
    9022.800     11.95619      4.20000
    9027.000     11.94164      4.20000
    9031.200     11.91995      4.20000
    9035.400     11.92566      4.20000
    9039.600     11.94478      4.20000
    9043.800     11.94803      4.20000
    9048.000     11.94955      4.20000
    9052.200     11.94580      4.20000
    9056.400     11.95609      4.20000
    9060.600     11.95347      4.20000
    9064.800     11.95365      4.20000
    9069.000     11.95773      4.20000
    9073.200     11.95619      4.20000
    9077.400     11.95826      4.20000
    9081.600     11.97131      4.20000
    9085.800     11.97438      4.20000
    9090.000     11.97121      4.20000
    9094.200     11.96596      4.20000
    9098.400     11.96788      4.20000
    9102.600     11.97468      4.20000
    9106.800     11.97902      4.20000
    9111.000     11.97475      4.20000
    9115.200     11.96307      4.20000
    9119.400     11.95525      4.20000
    9123.600     11.95571      4.20000
    9127.800     11.96539      4.20000
    9132.000     11.97529      4.20000
    9136.200     11.98389      4.20000
    9140.400     11.97655      4.20000
    9144.600     11.97485      4.20000
    9148.800     11.97223      4.20000
    9153.000     11.97739      4.20000
    9157.200     11.98145      4.20000
    9161.400     11.97513      4.20000
    9165.600     11.96918      4.20000
    9169.800     11.96497      4.20000
    9174.000     11.96751      4.20000
    9178.200     11.97475      4.20000
    9182.400     11.97846      4.20000
    9186.600     11.96839      4.20000
    9190.800     11.96462      4.20000
    9195.000     11.96456      4.20000
    9199.200     11.95892      4.20000
    9203.400     11.94065      4.20000
    9207.600     11.92605      4.20000
    9211.800     11.91522      4.20000
    9216.000     11.92111      4.20000
    9220.200     11.93730      4.20000
    9224.400     11.97231      4.20000
    9228.600     11.99452      4.20000
    9232.800     12.01111      4.20000
    9237.000     11.95736      4.20000
    9241.200     11.95663      4.20000
    9245.400     11.92737      4.20000
    9249.600     11.94267      4.20000
    9253.800     11.94831      4.20000
    9258.000     11.94934      4.20000
    9262.200     11.94712      4.20000
    9266.400     11.95134      4.20000
    9270.600     11.96233      4.20000
    9274.800     11.96177      4.20000
    9279.000     11.96443      4.20000
    9283.200     11.97264      4.20000
    9287.400     11.98253      4.20000
    9291.600     11.99274      4.20000
    9295.800     11.99818      4.20000
    9300.000     12.00538      4.20000
    9304.200     12.01277      4.20000
    9308.400     12.01013      4.20000
    9312.600     11.99849      4.20000
    9316.800     11.99439      4.20000
    9321.000     12.00208      4.20000
    9325.200     12.00483      4.20000
    9329.400     11.99762      4.20000
    9333.600     11.99587      4.20000
    9337.800     12.00520      4.20000
    9342.000     12.01784      4.20000
    9346.200     12.01779      4.20000
    9350.400     11.99820      4.20000
    9354.600     11.97986      4.20000
    9358.800     11.97020      4.20000
    9363.000     11.97183      4.20000
    9367.200     11.99504      4.20000
    9371.400     12.01677      4.20000
    9375.600     12.01348      4.20000
    9379.800     11.99251      4.20000
    9384.000     11.97690      4.20000
    9388.200     11.97700      4.20000
    9392.400     11.97253      4.20000
    9396.600     11.97288      4.20000
    9400.800     11.99000      4.20000
    9405.000     11.99507      4.20000
    9409.200     11.99222      4.20000
    9413.400     11.98847      4.20000
    9417.600     11.98740      4.20000
    9421.800     11.98772      4.20000
    9426.000     11.99596      4.20000
    9430.200     11.99784      4.20000
    9434.400     11.99369      4.20000
    9438.600     11.98984      4.20000
    9442.800     11.98711      4.20000
    9447.000     11.98619      4.20000
    9451.200     11.97739      4.20000
    9455.400     11.97629      4.20000
    9459.600     11.97994      4.20000
    9463.800     11.99243      4.20000
    9468.000     11.99120      4.20000
    9472.200     11.98766      4.20000
    9476.400     11.98116      4.20000
    9480.600     11.96573      4.20000
    9484.800     11.96261      4.20000
    9489.000     11.98188      4.20000
    9493.200     12.00331      4.20000
    9497.400     11.99757      4.20000
    9501.600     11.97348      4.20000
    9505.800     11.95778      4.20000
    9510.000     11.94990      4.20000
    9514.200     11.94762      4.20000
    9518.400     11.94875      4.20000
    9522.600     11.94520      4.20000
    9526.800     11.93435      4.20000
    9531.000     11.91937      4.20000
    9535.200     11.90710      4.20000
    9539.400     11.92557      4.20000
    9543.600     11.95953      4.20000
    9547.800     11.98673      4.20000
    9552.000     12.00245      4.20000
    9556.200     12.00890      4.20000
    9560.400     11.99846      4.20000
    9564.600     11.97719      4.20000
    9568.800     11.94781      4.20000
    9573.000     11.95121      4.20000
    9577.200     11.95794      4.20000
    9581.400     11.96593      4.20000
    9585.600     11.97386      4.20000
    9589.800     11.97809      4.20000
    9594.000     11.97081      4.20000
    9598.200     11.97119      4.20000
    9602.400     11.97672      4.20000
    9606.600     11.97605      4.20000
    9610.800     11.97621      4.20000
    9615.000     11.97888      4.20000
    9619.200     11.97352      4.20000
    9623.400     11.96854      4.20000
    9627.600     11.96717      4.20000
    9631.800     11.96951      4.20000
    9636.000     11.97636      4.20000
    9640.200     11.97438      4.20000
    9644.400     11.96981      4.20000
    9648.600     11.97155      4.20000
    9652.800     11.98155      4.20000
    9657.000     11.98784      4.20000
    9661.200     11.98637      4.20000
    9665.400     11.98728      4.20000
    9669.600     11.99159      4.20000
    9673.800     11.97700      4.20000
    9678.000     11.95667      4.20000
    9682.200     11.96518      4.20000
    9686.400     11.97541      4.20000
    9690.600     11.97265      4.20000
    9694.800     11.95795      4.20000
    9699.000     11.95917      4.20000
    9703.200     11.97217      4.20000
    9707.400     11.98293      4.20000
    9711.600     11.98740      4.20000
    9715.800     11.98760      4.20000
    9720.000     11.98233      4.20000
    9724.200     11.97492      4.20000
    9728.400     11.98605      4.20000
    9732.600     11.98961      4.20000
    9736.800     11.96722      4.20000
    9741.000     11.95048      4.20000
    9745.200     11.95094      4.20000
    9749.400     11.96652      4.20000
    9753.600     11.97528      4.20000
    9757.800     11.97412      4.20000
    9762.000     11.96998      4.20000
    9766.200     11.95572      4.20000
    9770.400     11.95645      4.20000
    9774.600     11.94970      4.20000
    9778.800     11.94878      4.20000
    9783.000     11.97295      4.20000
    9787.200     11.99042      4.20000
    9791.400     11.97550      4.20000
    9795.600     11.95157      4.20000
    9799.800     11.94975      4.20000
    9804.000     11.96341      4.20000
    9808.200     11.96458      4.20000
    9812.400     11.96014      4.20000
    9816.600     11.95246      4.20000
    9820.800     11.94744      4.20000
    9825.000     11.94666      4.20000
    9829.200     11.94738      4.20000
    9833.400     11.94259      4.20000
    9837.600     11.93528      4.20000
    9841.800     11.93978      4.20000
    9846.000     11.96093      4.20000
    9850.200     11.97533      4.20000
    9854.400     11.96213      4.20000
    9858.600     11.93246      4.20000
    9862.800     11.91834      4.20000
    9867.000     11.91608      4.20000
    9871.200     11.90039      4.20000
    9875.400     11.88792      4.20000
    9879.600     11.89602      4.20000
    9883.800     11.90125      4.20000
    9888.000     11.91051      4.20000
    9892.200     11.93309      4.20000
    9896.400     11.95133      4.20000
    9900.600     11.94541      4.20000
    9904.800     11.94461      4.20000
    9909.000     11.95222      4.20000
    9913.200     11.94768      4.20000
    9917.400     11.93108      4.20000
    9921.600     11.91185      4.20000
    9925.800     11.89179      4.20000
    9930.000     11.88603      4.20000
    9934.200     11.91070      4.20000
    9938.400     11.94893      4.20000
    9942.600     11.96113      4.20000
    9946.800     11.93698      4.20000
    9951.000     11.91154      4.20000
    9955.200     11.90916      4.20000
    9959.400     11.91173      4.20000
    9963.600     11.91077      4.20000
    9967.800     11.91953      4.20000
    9972.000     11.92546      4.20000
    9976.200     11.91435      4.20000
    9980.400     11.91037      4.20000
    9984.600     11.92115      4.20000
    9988.800     11.94198      4.20000
    9993.000     11.93167      4.20000
    9997.200     11.92483      4.20000
   10001.400     11.93120      4.20000
   10005.600     11.92133      4.20000
   10009.800     11.91111      4.20000
   10014.000     11.91023      4.20000
   10018.200     11.88189      4.20000
   10022.400     11.84363      4.20000
   10026.600     11.82677      4.20000
   10030.800     11.83662      4.20000
   10035.000     11.84129      4.20000
   10039.200     11.85005      4.20000
   10043.400     11.87928      4.20000
   10047.600     11.87895      4.20000
   10051.800     11.88756      4.20000
   10056.000     11.88605      4.20000
   10060.200     11.86663      4.20000
   10064.400     11.84534      4.20000
   10068.600     11.82287      4.20000
   10072.800     11.85581      4.20000
   10077.000     11.95020      4.20000
   10081.200     11.97615      4.20000
   10085.400     11.93596      4.20000
   10089.600     11.88798      4.20000
   10093.800     11.84651      4.20000
   10098.000     11.83239      4.20000
   10102.200     11.87856      4.20000
   10106.400     11.91806      4.20000
   10110.600     11.93703      4.20000
   10114.800     11.96186      4.20000
   10119.000     11.96071      4.20000
   10123.200     11.88440      4.20000
   10127.400     11.79988      4.20000
   10131.600     11.79208      4.20000
   10135.800     11.84177      4.20000
   10140.000     11.89336      4.20000
   10144.200     11.92981      4.20000
   10148.400     11.95017      4.20000
   10152.600     11.95018      4.20000
   10156.800     11.94058      4.20000
   10161.000     11.95216      4.20000
   10165.200     11.86598      4.20000
