# LTT9491 from Hamuy,
# corrected for atmospheric absorption by ALG
#
    3004.200     17.34507      4.20000
    3008.400     17.24781      4.20000
    3012.600     17.08897      4.20000
    3016.800     17.05753      4.20000
    3021.000     17.01947      4.20000
    3025.200     16.89216      4.20000
    3029.400     16.69241      4.20000
    3033.600     16.43038      4.20000
    3037.800     16.22850      4.20000
    3042.000     16.10679      4.20000
    3046.200     16.02038      4.20000
    3050.400     15.94853      4.20000
    3054.600     15.87330      4.20000
    3058.800     15.79062      4.20000
    3063.000     15.70610      4.20000
    3067.200     15.61034      4.20000
    3071.400     15.50667      4.20000
    3075.600     15.40843      4.20000
    3079.800     15.33035      4.20000
    3084.000     15.26832      4.20000
    3088.200     15.21347      4.20000
    3092.400     15.15836      4.20000
    3096.600     15.10151      4.20000
    3100.800     15.04574      4.20000
    3105.000     14.99723      4.20000
    3109.200     14.95610      4.20000
    3113.400     14.90843      4.20000
    3117.600     14.85988      4.20000
    3121.800     14.81460      4.20000
    3126.000     14.77066      4.20000
    3130.200     14.72261      4.20000
    3134.400     14.67797      4.20000
    3138.600     14.63946      4.20000
    3142.800     14.60339      4.20000
    3147.000     14.57322      4.20000
    3151.200     14.54694      4.20000
    3155.400     14.52085      4.20000
    3159.600     14.49318      4.20000
    3163.800     14.46960      4.20000
    3168.000     14.44633      4.20000
    3172.200     14.42031      4.20000
    3176.400     14.39621      4.20000
    3180.600     14.37267      4.20000
    3184.800     14.35103      4.20000
    3189.000     14.33353      4.20000
    3193.200     14.32045      4.20000
    3197.400     14.30308      4.20000
    3201.600     14.28119      4.20000
    3205.800     14.26053      4.20000
    3210.000     14.24333      4.20000
    3214.200     14.22910      4.20000
    3218.400     14.21779      4.20000
    3222.600     14.20876      4.20000
    3226.800     14.19682      4.20000
    3231.000     14.18397      4.20000
    3235.200     14.17322      4.20000
    3239.400     14.16535      4.20000
    3243.600     14.15850      4.20000
    3247.800     14.15335      4.20000
    3252.000     14.14948      4.20000
    3256.200     14.14425      4.20000
    3260.400     14.13611      4.20000
    3264.600     14.12854      4.20000
    3268.800     14.12486      4.20000
    3273.000     14.12371      4.20000
    3277.200     14.11582      4.20000
    3281.400     14.10547      4.20000
    3285.600     14.09950      4.20000
    3289.800     14.09278      4.20000
    3294.000     14.08820      4.20000
    3298.200     14.08694      4.20000
    3302.400     14.08791      4.20000
    3306.600     14.08961      4.20000
    3310.800     14.08782      4.20000
    3315.000     14.08215      4.20000
    3319.200     14.07589      4.20000
    3323.400     14.07096      4.20000
    3327.600     14.06870      4.20000
    3331.800     14.06819      4.20000
    3336.000     14.06657      4.20000
    3340.200     14.06145      4.20000
    3344.400     14.05593      4.20000
    3348.600     14.05235      4.20000
    3352.800     14.04917      4.20000
    3357.000     14.04521      4.20000
    3361.200     14.04443      4.20000
    3365.400     14.04826      4.20000
    3369.600     14.05044      4.20000
    3373.800     14.05254      4.20000
    3378.000     14.05260      4.20000
    3382.200     14.04862      4.20000
    3386.400     14.04368      4.20000
    3390.600     14.04073      4.20000
    3394.800     14.04160      4.20000
    3399.000     14.04533      4.20000
    3403.200     14.04729      4.20000
    3407.400     14.04815      4.20000
    3411.600     14.05086      4.20000
    3415.800     14.05716      4.20000
    3420.000     14.06343      4.20000
    3424.200     14.06914      4.20000
    3428.400     14.07379      4.20000
    3432.600     14.07572      4.20000
    3436.800     14.07319      4.20000
    3441.000     14.07006      4.20000
    3445.200     14.07020      4.20000
    3449.400     14.07315      4.20000
    3453.600     14.07545      4.20000
    3457.800     14.07506      4.20000
    3462.000     14.07205      4.20000
    3466.200     14.06808      4.20000
    3470.400     14.06524      4.20000
    3474.600     14.06436      4.20000
    3478.800     14.06453      4.20000
    3483.000     14.06346      4.20000
    3487.200     14.06402      4.20000
    3491.400     14.06484      4.20000
    3495.600     14.06245      4.20000
    3499.800     14.05837      4.20000
    3504.000     14.05310      4.20000
    3508.200     14.04942      4.20000
    3512.400     14.04990      4.20000
    3516.600     14.05049      4.20000
    3520.800     14.04913      4.20000
    3525.000     14.04669      4.20000
    3529.200     14.04557      4.20000
    3533.400     14.04502      4.20000
    3537.600     14.04388      4.20000
    3541.800     14.04277      4.20000
    3546.000     14.04380      4.20000
    3550.200     14.04313      4.20000
    3554.400     14.04039      4.20000
    3558.600     14.03767      4.20000
    3562.800     14.03679      4.20000
    3567.000     14.03818      4.20000
    3571.200     14.03783      4.20000
    3575.400     14.03371      4.20000
    3579.600     14.03233      4.20000
    3583.800     14.03292      4.20000
    3588.000     14.03325      4.20000
    3592.200     14.03206      4.20000
    3596.400     14.03058      4.20000
    3600.600     14.03029      4.20000
    3604.800     14.03019      4.20000
    3609.000     14.02792      4.20000
    3613.200     14.02429      4.20000
    3617.400     14.02188      4.20000
    3621.600     14.02051      4.20000
    3625.800     14.01741      4.20000
    3630.000     14.01575      4.20000
    3634.200     14.01479      4.20000
    3638.400     14.01277      4.20000
    3642.600     14.00963      4.20000
    3646.800     14.00894      4.20000
    3651.000     14.00955      4.20000
    3655.200     14.00996      4.20000
    3659.400     14.01250      4.20000
    3663.600     14.01523      4.20000
    3667.800     14.01615      4.20000
    3672.000     14.01434      4.20000
    3676.200     14.01061      4.20000
    3680.400     14.00976      4.20000
    3684.600     14.01228      4.20000
    3688.800     14.01485      4.20000
    3693.000     14.01515      4.20000
    3697.200     14.01628      4.20000
    3701.400     14.01814      4.20000
    3705.600     14.01741      4.20000
    3709.800     14.01564      4.20000
    3714.000     14.01443      4.20000
    3718.200     14.01421      4.20000
    3722.400     14.01434      4.20000
    3726.600     14.01579      4.20000
    3730.800     14.01746      4.20000
    3735.000     14.01748      4.20000
    3739.200     14.01482      4.20000
    3743.400     14.01077      4.20000
    3747.600     14.00921      4.20000
    3751.800     14.01144      4.20000
    3756.000     14.01286      4.20000
    3760.200     14.01282      4.20000
    3764.400     14.01185      4.20000
    3768.600     14.01092      4.20000
    3772.800     14.01079      4.20000
    3777.000     14.00919      4.20000
    3781.200     14.00808      4.20000
    3785.400     14.01074      4.20000
    3789.600     14.01373      4.20000
    3793.800     14.01460      4.20000
    3798.000     14.01388      4.20000
    3802.200     14.01408      4.20000
    3806.400     14.01547      4.20000
    3810.600     14.01431      4.20000
    3814.800     14.00955      4.20000
    3819.000     14.00488      4.20000
    3823.200     14.00429      4.20000
    3827.400     14.00288      4.20000
    3831.600     13.99891      4.20000
    3835.800     13.99956      4.20000
    3840.000     14.00097      4.20000
    3844.200     14.00043      4.20000
    3848.400     13.99794      4.20000
    3852.600     13.99615      4.20000
    3856.800     13.99507      4.20000
    3861.000     13.99617      4.20000
    3865.200     14.00150      4.20000
    3869.400     14.01156      4.20000
    3873.600     14.02103      4.20000
    3877.800     14.02809      4.20000
    3882.000     14.03317      4.20000
    3886.200     14.03160      4.20000
    3890.400     14.02462      4.20000
    3894.600     14.01573      4.20000
    3898.800     14.00870      4.20000
    3903.000     14.00742      4.20000
    3907.200     14.00699      4.20000
    3911.400     14.00453      4.20000
    3915.600     14.00338      4.20000
    3919.800     14.00529      4.20000
    3924.000     14.00815      4.20000
    3928.200     14.00896      4.20000
    3932.400     14.00703      4.20000
    3936.600     14.00633      4.20000
    3940.800     14.00719      4.20000
    3945.000     14.00774      4.20000
    3949.200     14.00692      4.20000
    3953.400     14.00475      4.20000
    3957.600     14.00236      4.20000
    3961.800     14.00191      4.20000
    3966.000     14.00616      4.20000
    3970.200     14.00996      4.20000
    3974.400     14.01101      4.20000
    3978.600     14.01106      4.20000
    3982.800     14.01163      4.20000
    3987.000     14.01191      4.20000
    3991.200     14.01202      4.20000
    3995.400     14.01255      4.20000
    3999.600     14.00941      4.20000
    4003.800     14.00832      4.20000
    4008.000     14.01232      4.20000
    4012.200     14.01619      4.20000
    4016.400     14.01290      4.20000
    4020.600     14.00554      4.20000
    4024.800     13.99956      4.20000
    4029.000     13.99572      4.20000
    4033.200     13.99163      4.20000
    4037.400     13.98715      4.20000
    4041.600     13.98453      4.20000
    4045.800     13.98668      4.20000
    4050.000     13.98816      4.20000
    4054.200     13.98749      4.20000
    4058.400     13.98699      4.20000
    4062.600     13.98873      4.20000
    4066.800     13.98922      4.20000
    4071.000     13.98706      4.20000
    4075.200     13.98414      4.20000
    4079.400     13.98293      4.20000
    4083.600     13.98354      4.20000
    4087.800     13.98626      4.20000
    4092.000     13.99177      4.20000
    4096.200     13.99937      4.20000
    4100.400     14.00323      4.20000
    4104.600     14.00195      4.20000
    4108.800     14.00084      4.20000
    4113.000     13.99827      4.20000
    4117.200     13.99540      4.20000
    4121.400     13.99452      4.20000
    4125.600     13.99673      4.20000
    4129.800     13.99609      4.20000
    4134.000     13.99487      4.20000
    4138.200     13.99682      4.20000
    4142.400     13.99883      4.20000
    4146.600     13.99985      4.20000
    4150.800     14.00103      4.20000
    4155.000     14.00365      4.20000
    4159.200     14.00605      4.20000
    4163.400     14.00606      4.20000
    4167.600     14.00452      4.20000
    4171.800     14.00366      4.20000
    4176.000     14.00196      4.20000
    4180.200     14.00036      4.20000
    4184.400     14.00160      4.20000
    4188.600     14.00686      4.20000
    4192.800     14.00815      4.20000
    4197.000     14.00467      4.20000
    4201.200     14.00032      4.20000
    4205.400     13.99926      4.20000
    4209.600     13.99854      4.20000
    4213.800     13.99701      4.20000
    4218.000     13.99574      4.20000
    4222.200     13.99698      4.20000
    4226.400     14.00098      4.20000
    4230.600     14.00269      4.20000
    4234.800     13.99956      4.20000
    4239.000     13.99864      4.20000
    4243.200     13.99972      4.20000
    4247.400     14.00183      4.20000
    4251.600     14.00514      4.20000
    4255.800     14.01171      4.20000
    4260.000     14.01654      4.20000
    4264.200     14.01469      4.20000
    4268.400     14.00656      4.20000
    4272.600     14.00133      4.20000
    4276.800     14.00332      4.20000
    4281.000     14.00893      4.20000
    4285.200     14.01045      4.20000
    4289.400     14.00912      4.20000
    4293.600     14.00689      4.20000
    4297.800     14.00521      4.20000
    4302.000     14.00438      4.20000
    4306.200     14.00435      4.20000
    4310.400     14.00607      4.20000
    4314.600     14.01035      4.20000
    4318.800     14.01659      4.20000
    4323.000     14.02011      4.20000
    4327.200     14.02123      4.20000
    4331.400     14.02201      4.20000
    4335.600     14.02131      4.20000
    4339.800     14.02127      4.20000
    4344.000     14.02225      4.20000
    4348.200     14.02291      4.20000
    4352.400     14.02215      4.20000
    4356.600     14.02251      4.20000
    4360.800     14.02428      4.20000
    4365.000     14.02541      4.20000
    4369.200     14.02565      4.20000
    4373.400     14.02481      4.20000
    4377.600     14.02367      4.20000
    4381.800     14.02363      4.20000
    4386.000     14.02517      4.20000
    4390.200     14.02798      4.20000
    4394.400     14.02991      4.20000
    4398.600     14.02818      4.20000
    4402.800     14.02678      4.20000
    4407.000     14.02839      4.20000
    4411.200     14.03098      4.20000
    4415.400     14.02811      4.20000
    4419.600     14.02276      4.20000
    4423.800     14.02056      4.20000
    4428.000     14.02510      4.20000
    4432.200     14.03422      4.20000
    4436.400     14.04036      4.20000
    4440.600     14.04010      4.20000
    4444.800     14.03728      4.20000
    4449.000     14.04150      4.20000
    4453.200     14.04925      4.20000
    4457.400     14.05520      4.20000
    4461.600     14.05728      4.20000
    4465.800     14.05795      4.20000
    4470.000     14.05591      4.20000
    4474.200     14.05067      4.20000
    4478.400     14.04489      4.20000
    4482.600     14.04527      4.20000
    4486.800     14.04548      4.20000
    4491.000     14.04031      4.20000
    4495.200     14.03375      4.20000
    4499.400     14.03048      4.20000
    4503.600     14.03010      4.20000
    4507.800     14.03055      4.20000
    4512.000     14.03173      4.20000
    4516.200     14.03024      4.20000
    4520.400     14.02691      4.20000
    4524.600     14.02462      4.20000
    4528.800     14.02446      4.20000
    4533.000     14.02496      4.20000
    4537.200     14.02658      4.20000
    4541.400     14.03017      4.20000
    4545.600     14.03318      4.20000
    4549.800     14.03382      4.20000
    4554.000     14.03391      4.20000
    4558.200     14.03552      4.20000
    4562.400     14.03209      4.20000
    4566.600     14.02820      4.20000
    4570.800     14.02921      4.20000
    4575.000     14.03480      4.20000
    4579.200     14.03543      4.20000
    4583.400     14.03458      4.20000
    4587.600     14.03635      4.20000
    4591.800     14.03749      4.20000
    4596.000     14.03441      4.20000
    4600.200     14.03076      4.20000
    4604.400     14.03013      4.20000
    4608.600     14.02987      4.20000
    4612.800     14.03064      4.20000
    4617.000     14.03326      4.20000
    4621.200     14.03803      4.20000
    4625.400     14.04423      4.20000
    4629.600     14.04461      4.20000
    4633.800     14.04097      4.20000
    4638.000     14.03993      4.20000
    4642.200     14.03993      4.20000
    4646.400     14.03885      4.20000
    4650.600     14.03815      4.20000
    4654.800     14.04074      4.20000
    4659.000     14.04240      4.20000
    4663.200     14.04456      4.20000
    4667.400     14.04605      4.20000
    4671.600     14.04262      4.20000
    4675.800     14.03769      4.20000
    4680.000     14.03769      4.20000
    4684.200     14.04382      4.20000
    4688.400     14.04952      4.20000
    4692.600     14.05323      4.20000
    4696.800     14.05545      4.20000
    4701.000     14.05583      4.20000
    4705.200     14.05152      4.20000
    4709.400     14.04745      4.20000
    4713.600     14.04783      4.20000
    4717.800     14.05120      4.20000
    4722.000     14.04823      4.20000
    4726.200     14.04594      4.20000
    4730.400     14.04790      4.20000
    4734.600     14.05154      4.20000
    4738.800     14.05260      4.20000
    4743.000     14.05349      4.20000
    4747.200     14.05484      4.20000
    4751.400     14.05480      4.20000
    4755.600     14.05489      4.20000
    4759.800     14.05674      4.20000
    4764.000     14.05904      4.20000
    4768.200     14.05838      4.20000
    4772.400     14.05596      4.20000
    4776.600     14.05520      4.20000
    4780.800     14.05750      4.20000
    4785.000     14.06026      4.20000
    4789.200     14.06023      4.20000
    4793.400     14.05931      4.20000
    4797.600     14.05922      4.20000
    4801.800     14.05673      4.20000
    4806.000     14.05557      4.20000
    4810.200     14.05584      4.20000
    4814.400     14.05530      4.20000
    4818.600     14.05321      4.20000
    4822.800     14.05377      4.20000
    4827.000     14.05654      4.20000
    4831.200     14.05842      4.20000
    4835.400     14.06163      4.20000
    4839.600     14.06188      4.20000
    4843.800     14.05922      4.20000
    4848.000     14.05862      4.20000
    4852.200     14.06218      4.20000
    4856.400     14.06409      4.20000
    4860.600     14.06203      4.20000
    4864.800     14.06040      4.20000
    4869.000     14.05896      4.20000
    4873.200     14.05715      4.20000
    4877.400     14.05461      4.20000
    4881.600     14.05179      4.20000
    4885.800     14.05163      4.20000
    4890.000     14.05424      4.20000
    4894.200     14.05658      4.20000
    4898.400     14.05420      4.20000
    4902.600     14.05273      4.20000
    4906.800     14.05394      4.20000
    4911.000     14.05636      4.20000
    4915.200     14.05940      4.20000
    4919.400     14.06090      4.20000
    4923.600     14.06047      4.20000
    4927.800     14.05898      4.20000
    4932.000     14.05576      4.20000
    4936.200     14.05457      4.20000
    4940.400     14.05529      4.20000
    4944.600     14.05438      4.20000
    4948.800     14.05304      4.20000
    4953.000     14.05362      4.20000
    4957.200     14.05606      4.20000
    4961.400     14.05772      4.20000
    4965.600     14.05963      4.20000
    4969.800     14.06184      4.20000
    4974.000     14.06275      4.20000
    4978.200     14.05997      4.20000
    4982.400     14.05411      4.20000
    4986.600     14.05044      4.20000
    4990.800     14.05235      4.20000
    4995.000     14.05616      4.20000
    4999.200     14.05909      4.20000
    5003.400     14.06034      4.20000
    5007.600     14.06153      4.20000
    5011.800     14.06577      4.20000
    5016.000     14.06729      4.20000
    5020.200     14.06476      4.20000
    5024.400     14.06198      4.20000
    5028.600     14.06156      4.20000
    5032.800     14.06258      4.20000
    5037.000     14.06510      4.20000
    5041.200     14.06930      4.20000
    5045.400     14.06817      4.20000
    5049.600     14.06467      4.20000
    5053.800     14.06323      4.20000
    5058.000     14.06406      4.20000
    5062.200     14.06194      4.20000
    5066.400     14.05852      4.20000
    5070.600     14.05724      4.20000
    5074.800     14.05847      4.20000
    5079.000     14.05952      4.20000
    5083.200     14.06185      4.20000
    5087.400     14.06649      4.20000
    5091.600     14.06933      4.20000
    5095.800     14.06952      4.20000
    5100.000     14.06757      4.20000
    5104.200     14.06431      4.20000
    5108.400     14.05983      4.20000
    5112.600     14.05759      4.20000
    5116.800     14.05904      4.20000
    5121.000     14.06232      4.20000
    5125.200     14.06313      4.20000
    5129.400     14.06160      4.20000
    5133.600     14.06056      4.20000
    5137.800     14.06243      4.20000
    5142.000     14.06432      4.20000
    5146.200     14.06423      4.20000
    5150.400     14.06268      4.20000
    5154.600     14.06205      4.20000
    5158.800     14.06183      4.20000
    5163.000     14.06305      4.20000
    5167.200     14.06615      4.20000
    5171.400     14.06939      4.20000
    5175.600     14.06811      4.20000
    5179.800     14.06478      4.20000
    5184.000     14.06402      4.20000
    5188.200     14.06608      4.20000
    5192.400     14.06887      4.20000
    5196.600     14.07016      4.20000
    5200.800     14.06972      4.20000
    5205.000     14.07057      4.20000
    5209.200     14.07171      4.20000
    5213.400     14.07223      4.20000
    5217.600     14.07228      4.20000
    5221.800     14.07242      4.20000
    5226.000     14.07182      4.20000
    5230.200     14.07012      4.20000
    5234.400     14.06879      4.20000
    5238.600     14.07300      4.20000
    5242.800     14.07834      4.20000
    5247.000     14.07974      4.20000
    5251.200     14.07754      4.20000
    5255.400     14.07775      4.20000
    5259.600     14.07750      4.20000
    5263.800     14.07510      4.20000
    5268.000     14.07656      4.20000
    5272.200     14.08091      4.20000
    5276.400     14.08387      4.20000
    5280.600     14.08329      4.20000
    5284.800     14.08345      4.20000
    5289.000     14.08501      4.20000
    5293.200     14.08747      4.20000
    5297.400     14.08938      4.20000
    5301.600     14.08880      4.20000
    5305.800     14.08896      4.20000
    5310.000     14.09001      4.20000
    5314.200     14.08969      4.20000
    5318.400     14.08984      4.20000
    5322.600     14.08777      4.20000
    5326.800     14.08460      4.20000
    5331.000     14.08481      4.20000
    5335.200     14.08570      4.20000
    5339.400     14.08575      4.20000
    5343.600     14.08620      4.20000
    5347.800     14.08957      4.20000
    5352.000     14.09091      4.20000
    5356.200     14.08896      4.20000
    5360.400     14.08542      4.20000
    5364.600     14.08288      4.20000
    5368.800     14.08324      4.20000
    5373.000     14.08508      4.20000
    5377.200     14.08643      4.20000
    5381.400     14.08800      4.20000
    5385.600     14.08884      4.20000
    5389.800     14.08860      4.20000
    5394.000     14.08778      4.20000
    5398.200     14.08732      4.20000
    5402.400     14.08980      4.20000
    5406.600     14.09390      4.20000
    5410.800     14.09563      4.20000
    5415.000     14.09407      4.20000
    5419.200     14.09378      4.20000
    5423.400     14.09562      4.20000
    5427.600     14.09617      4.20000
    5431.800     14.09827      4.20000
    5436.000     14.09889      4.20000
    5440.200     14.09726      4.20000
    5444.400     14.09744      4.20000
    5448.600     14.09716      4.20000
    5452.800     14.09687      4.20000
    5457.000     14.09803      4.20000
    5461.200     14.10105      4.20000
    5465.400     14.10462      4.20000
    5469.600     14.10670      4.20000
    5473.800     14.10581      4.20000
    5478.000     14.10215      4.20000
    5482.200     14.10077      4.20000
    5486.400     14.10181      4.20000
    5490.600     14.10250      4.20000
    5494.800     14.10344      4.20000
    5499.000     14.10370      4.20000
    5503.200     14.10369      4.20000
    5507.400     14.10469      4.20000
    5511.600     14.10641      4.20000
    5515.800     14.10494      4.20000
    5520.000     14.10221      4.20000
    5524.200     14.10532      4.20000
    5528.400     14.11373      4.20000
    5532.600     14.11676      4.20000
    5536.800     14.11034      4.20000
    5541.000     14.10385      4.20000
    5545.200     14.10396      4.20000
    5549.400     14.10771      4.20000
    5553.600     14.11074      4.20000
    5557.800     14.11449      4.20000
    5562.000     14.11691      4.20000
    5566.200     14.11729      4.20000
    5570.400     14.11628      4.20000
    5574.600     14.11514      4.20000
    5578.800     14.11470      4.20000
    5583.000     14.11527      4.20000
    5587.200     14.11574      4.20000
    5591.400     14.11268      4.20000
    5595.600     14.11116      4.20000
    5599.800     14.11262      4.20000
    5604.000     14.11273      4.20000
    5608.200     14.10563      4.20000
    5612.400     14.10216      4.20000
    5616.600     14.11068      4.20000
    5620.800     14.12722      4.20000
    5625.000     14.13440      4.20000
    5629.200     14.13174      4.20000
    5633.400     14.12662      4.20000
    5637.600     14.12436      4.20000
    5641.800     14.12432      4.20000
    5646.000     14.12697      4.20000
    5650.200     14.13169      4.20000
    5654.400     14.13514      4.20000
    5658.600     14.13417      4.20000
    5662.800     14.13049      4.20000
    5667.000     14.12825      4.20000
    5671.200     14.12983      4.20000
    5675.400     14.13299      4.20000
    5679.600     14.13714      4.20000
    5683.800     14.14188      4.20000
    5688.000     14.14282      4.20000
    5692.200     14.13960      4.20000
    5696.400     14.13714      4.20000
    5700.600     14.14041      4.20000
    5704.800     14.14386      4.20000
    5709.000     14.14554      4.20000
    5713.200     14.14636      4.20000
    5717.400     14.14826      4.20000
    5721.600     14.15081      4.20000
    5725.800     14.15213      4.20000
    5730.000     14.15167      4.20000
    5734.200     14.15132      4.20000
    5738.400     14.15271      4.20000
    5742.600     14.15417      4.20000
    5746.800     14.15358      4.20000
    5751.000     14.15120      4.20000
    5755.200     14.14906      4.20000
    5759.400     14.14796      4.20000
    5763.600     14.14787      4.20000
    5767.800     14.14899      4.20000
    5772.000     14.15006      4.20000
    5776.200     14.15167      4.20000
    5780.400     14.15528      4.20000
    5784.600     14.16056      4.20000
    5788.800     14.16267      4.20000
    5793.000     14.16061      4.20000
    5797.200     14.15796      4.20000
    5801.400     14.15712      4.20000
    5805.600     14.15730      4.20000
    5809.800     14.15746      4.20000
    5814.000     14.15770      4.20000
    5818.200     14.15795      4.20000
    5822.400     14.15635      4.20000
    5826.600     14.15403      4.20000
    5830.800     14.15582      4.20000
    5835.000     14.15852      4.20000
    5839.200     14.16120      4.20000
    5843.400     14.16513      4.20000
    5847.600     14.17227      4.20000
    5851.800     14.18019      4.20000
    5856.000     14.19023      4.20000
    5860.200     14.20445      4.20000
    5864.400     14.22023      4.20000
    5868.600     14.23710      4.20000
    5872.800     14.24822      4.20000
    5877.000     14.24627      4.20000
    5881.200     14.23582      4.20000
    5885.400     14.22132      4.20000
    5889.600     14.20636      4.20000
    5893.800     14.19375      4.20000
    5898.000     14.18752      4.20000
    5902.200     14.18172      4.20000
    5906.400     14.17360      4.20000
    5910.600     14.16792      4.20000
    5914.800     14.16904      4.20000
    5919.000     14.17090      4.20000
    5923.200     14.16828      4.20000
    5927.400     14.16439      4.20000
    5931.600     14.16740      4.20000
    5935.800     14.17425      4.20000
    5940.000     14.17738      4.20000
    5944.200     14.17422      4.20000
    5948.400     14.17005      4.20000
    5952.600     14.16812      4.20000
    5956.800     14.16827      4.20000
    5961.000     14.16828      4.20000
    5965.200     14.16843      4.20000
    5969.400     14.16872      4.20000
    5973.600     14.16919      4.20000
    5977.800     14.17127      4.20000
    5982.000     14.17290      4.20000
    5986.200     14.17226      4.20000
    5990.400     14.16996      4.20000
    5994.600     14.17026      4.20000
    5998.800     14.17060      4.20000
    6003.000     14.16988      4.20000
    6007.200     14.17061      4.20000
    6011.400     14.17061      4.20000
    6015.600     14.17098      4.20000
    6019.800     14.17385      4.20000
    6024.000     14.17957      4.20000
    6028.200     14.18170      4.20000
    6032.400     14.18045      4.20000
    6036.600     14.17887      4.20000
    6040.800     14.17756      4.20000
    6045.000     14.17594      4.20000
    6049.200     14.17595      4.20000
    6053.400     14.17861      4.20000
    6057.600     14.17968      4.20000
    6061.800     14.17833      4.20000
    6066.000     14.17577      4.20000
    6070.200     14.17458      4.20000
    6074.400     14.17782      4.20000
    6078.600     14.18149      4.20000
    6082.800     14.18219      4.20000
    6087.000     14.17968      4.20000
    6091.200     14.17398      4.20000
    6095.400     14.17356      4.20000
    6099.600     14.18014      4.20000
    6103.800     14.18519      4.20000
    6108.000     14.18535      4.20000
    6112.200     14.18332      4.20000
    6116.400     14.18229      4.20000
    6120.600     14.18194      4.20000
    6124.800     14.18262      4.20000
    6129.000     14.18442      4.20000
    6133.200     14.18643      4.20000
    6137.400     14.18661      4.20000
    6141.600     14.18594      4.20000
    6145.800     14.18652      4.20000
    6150.000     14.18893      4.20000
    6154.200     14.18997      4.20000
    6158.400     14.18950      4.20000
    6162.600     14.18847      4.20000
    6166.800     14.18822      4.20000
    6171.000     14.19011      4.20000
    6175.200     14.19327      4.20000
    6179.400     14.19538      4.20000
    6183.600     14.19462      4.20000
    6187.800     14.19283      4.20000
    6192.000     14.19281      4.20000
    6196.200     14.19594      4.20000
    6200.400     14.20037      4.20000
    6204.600     14.19833      4.20000
    6208.800     14.19239      4.20000
    6213.000     14.18886      4.20000
    6217.200     14.19060      4.20000
    6221.400     14.19472      4.20000
    6225.600     14.19719      4.20000
    6229.800     14.19603      4.20000
    6234.000     14.19312      4.20000
    6238.200     14.19419      4.20000
    6242.400     14.19966      4.20000
    6246.600     14.20552      4.20000
    6250.800     14.20805      4.20000
    6255.000     14.20603      4.20000
    6259.200     14.20207      4.20000
    6263.400     14.20013      4.20000
    6267.600     14.20056      4.20000
    6271.800     14.20428      4.20000
    6276.000     14.19952      4.20000
    6280.200     14.20518      4.20000
    6284.400     14.21285      4.20000
    6288.600     14.21342      4.20000
    6292.800     14.21372      4.20000
    6297.000     14.22286      4.20000
    6301.200     14.22845      4.20000
    6305.400     14.22367      4.20000
    6309.600     14.21515      4.20000
    6313.800     14.20633      4.20000
    6318.000     14.19928      4.20000
    6322.200     14.19659      4.20000
    6326.400     14.19869      4.20000
    6330.600     14.20196      4.20000
    6334.800     14.19965      4.20000
    6339.000     14.19219      4.20000
    6343.200     14.18681      4.20000
    6347.400     14.19226      4.20000
    6351.600     14.20241      4.20000
    6355.800     14.20995      4.20000
    6360.000     14.21181      4.20000
    6364.200     14.20991      4.20000
    6368.400     14.20984      4.20000
    6372.600     14.21280      4.20000
    6376.800     14.21512      4.20000
    6381.000     14.21621      4.20000
    6385.200     14.21462      4.20000
    6389.400     14.21032      4.20000
    6393.600     14.20574      4.20000
    6397.800     14.20620      4.20000
    6402.000     14.21152      4.20000
    6406.200     14.21850      4.20000
    6410.400     14.22412      4.20000
    6414.600     14.22622      4.20000
    6418.800     14.22447      4.20000
    6423.000     14.22103      4.20000
    6427.200     14.21997      4.20000
    6431.400     14.22041      4.20000
    6435.600     14.22039      4.20000
    6439.800     14.21884      4.20000
    6444.000     14.21698      4.20000
    6448.200     14.21543      4.20000
    6452.400     14.21344      4.20000
    6456.600     14.21018      4.20000
    6460.800     14.20756      4.20000
    6465.000     14.20788      4.20000
    6469.200     14.21345      4.20000
    6473.400     14.22412      4.20000
    6477.600     14.23131      4.20000
    6481.800     14.23143      4.20000
    6486.000     14.22125      4.20000
    6490.200     14.22001      4.20000
    6494.400     14.21848      4.20000
    6498.600     14.21853      4.20000
    6502.800     14.21991      4.20000
    6507.000     14.22032      4.20000
    6511.200     14.21978      4.20000
    6515.400     14.21787      4.20000
    6519.600     14.21737      4.20000
    6523.800     14.22298      4.20000
    6528.000     14.23120      4.20000
    6532.200     14.23472      4.20000
    6536.400     14.23399      4.20000
    6540.600     14.23623      4.20000
    6544.800     14.24412      4.20000
    6549.000     14.25466      4.20000
    6553.200     14.26439      4.20000
    6557.400     14.27292      4.20000
    6561.600     14.27786      4.20000
    6565.800     14.27770      4.20000
    6570.000     14.26956      4.20000
    6574.200     14.25820      4.20000
    6578.400     14.24810      4.20000
    6582.600     14.23979      4.20000
    6586.800     14.23395      4.20000
    6591.000     14.23347      4.20000
    6595.200     14.23572      4.20000
    6599.400     14.23533      4.20000
    6603.600     14.23188      4.20000
    6607.800     14.23045      4.20000
    6612.000     14.23361      4.20000
    6616.200     14.23955      4.20000
    6620.400     14.24231      4.20000
    6624.600     14.24008      4.20000
    6628.800     14.23763      4.20000
    6633.000     14.23666      4.20000
    6637.200     14.23652      4.20000
    6641.400     14.23711      4.20000
    6645.600     14.23811      4.20000
    6649.800     14.24018      4.20000
    6654.000     14.24508      4.20000
    6658.200     14.25262      4.20000
    6662.400     14.25627      4.20000
    6666.600     14.25391      4.20000
    6670.800     14.25428      4.20000
    6675.000     14.26140      4.20000
    6679.200     14.26724      4.20000
    6683.400     14.26450      4.20000
    6687.600     14.25851      4.20000
    6691.800     14.25463      4.20000
    6696.000     14.25035      4.20000
    6700.200     14.24517      4.20000
    6704.400     14.24581      4.20000
    6708.600     14.25314      4.20000
    6712.800     14.25521      4.20000
    6717.000     14.24659      4.20000
    6721.200     14.23936      4.20000
    6725.400     14.24054      4.20000
    6729.600     14.23912      4.20000
    6733.800     14.23224      4.20000
    6738.000     14.23229      4.20000
    6742.200     14.24210      4.20000
    6746.400     14.24920      4.20000
    6750.600     14.24934      4.20000
    6754.800     14.24899      4.20000
    6759.000     14.24964      4.20000
    6763.200     14.24994      4.20000
    6767.400     14.25243      4.20000
    6771.600     14.25724      4.20000
    6775.800     14.25912      4.20000
    6780.000     14.25732      4.20000
    6784.200     14.25537      4.20000
    6788.400     14.25623      4.20000
    6792.600     14.26030      4.20000
    6796.800     14.26443      4.20000
    6801.000     14.26659      4.20000
    6805.200     14.26430      4.20000
    6809.400     14.25938      4.20000
    6813.600     14.25791      4.20000
    6817.800     14.26337      4.20000
    6822.000     14.26988      4.20000
    6826.200     14.27281      4.20000
    6830.400     14.27097      4.20000
    6834.600     14.26579      4.20000
    6838.800     14.26421      4.20000
    6843.000     14.26907      4.20000
    6847.200     14.27301      4.20000
    6851.400     14.27319      4.20000
    6855.600     14.28074      4.20000
    6859.800     14.26737      4.20000
    6864.000     14.26280      4.20000
    6868.200     14.26175      4.20000
    6872.400     14.27273      4.20000
    6876.600     14.28230      4.20000
    6880.800     14.28149      4.20000
    6885.000     14.27416      4.20000
    6889.200     14.26715      4.20000
    6893.400     14.26507      4.20000
    6897.600     14.26838      4.20000
    6901.800     14.27426      4.20000
    6906.000     14.27791      4.20000
    6910.200     14.27843      4.20000
    6914.400     14.27853      4.20000
    6918.600     14.28186      4.20000
    6922.800     14.29036      4.20000
    6927.000     14.30340      4.20000
    6931.200     14.31259      4.20000
    6935.400     14.30782      4.20000
    6939.600     14.29782      4.20000
    6943.800     14.29644      4.20000
    6948.000     14.29606      4.20000
    6952.200     14.29209      4.20000
    6956.400     14.29101      4.20000
    6960.600     14.29288      4.20000
    6964.800     14.29446      4.20000
    6969.000     14.29709      4.20000
    6973.200     14.30168      4.20000
    6977.400     14.30287      4.20000
    6981.600     14.29847      4.20000
    6985.800     14.29325      4.20000
    6990.000     14.29350      4.20000
    6994.200     14.29909      4.20000
    6998.400     14.30624      4.20000
    7002.600     14.30926      4.20000
    7006.800     14.30583      4.20000
    7011.000     14.30142      4.20000
    7015.200     14.30046      4.20000
    7019.400     14.30116      4.20000
    7023.600     14.30013      4.20000
    7027.800     14.30102      4.20000
    7032.000     14.30523      4.20000
    7036.200     14.30763      4.20000
    7040.400     14.30795      4.20000
    7044.600     14.31095      4.20000
    7048.800     14.31563      4.20000
    7053.000     14.31729      4.20000
    7057.200     14.31474      4.20000
    7061.400     14.30948      4.20000
    7065.600     14.30659      4.20000
    7069.800     14.30877      4.20000
    7074.000     14.30925      4.20000
    7078.200     14.30651      4.20000
    7082.400     14.30382      4.20000
    7086.600     14.30434      4.20000
    7090.800     14.30558      4.20000
    7095.000     14.30861      4.20000
    7099.200     14.31530      4.20000
    7103.400     14.32220      4.20000
    7107.600     14.32349      4.20000
    7111.800     14.31863      4.20000
    7116.000     14.31124      4.20000
    7120.200     14.30739      4.20000
    7124.400     14.30762      4.20000
    7128.600     14.30517      4.20000
    7132.800     14.30274      4.20000
    7137.000     14.30814      4.20000
    7141.200     14.31611      4.20000
    7145.400     14.31756      4.20000
    7149.600     14.31613      4.20000
    7153.800     14.31892      4.20000
    7158.000     14.32595      4.20000
    7162.200     14.32313      4.20000
    7166.400     14.31205      4.20000
    7170.600     14.30367      4.20000
    7174.800     14.30424      4.20000
    7179.000     14.30845      4.20000
    7183.200     14.31209      4.20000
    7187.400     14.31085      4.20000
    7191.600     14.30815      4.20000
    7195.800     14.30941      4.20000
    7200.000     14.31642      4.20000
    7204.200     14.32414      4.20000
    7208.400     14.32648      4.20000
    7212.600     14.32534      4.20000
    7216.800     14.32919      4.20000
    7221.000     14.33572      4.20000
    7225.200     14.34405      4.20000
    7229.400     14.34105      4.20000
    7233.600     14.33235      4.20000
    7237.800     14.32453      4.20000
    7242.000     14.32222      4.20000
    7246.200     14.32576      4.20000
    7250.400     14.33385      4.20000
    7254.600     14.33679      4.20000
    7258.800     14.33287      4.20000
    7263.000     14.33203      4.20000
    7267.200     14.33507      4.20000
    7271.400     14.33351      4.20000
    7275.600     14.32699      4.20000
    7279.800     14.32497      4.20000
    7284.000     14.32591      4.20000
    7288.200     14.32847      4.20000
    7292.400     14.33723      4.20000
    7296.600     14.35118      4.20000
    7300.800     14.35422      4.20000
    7305.000     14.34294      4.20000
    7309.200     14.33471      4.20000
    7313.400     14.32956      4.20000
    7317.600     14.33343      4.20000
    7321.800     14.34372      4.20000
    7326.000     14.35833      4.20000
    7330.200     14.36572      4.20000
    7334.400     14.36593      4.20000
    7338.600     14.36231      4.20000
    7342.800     14.36141      4.20000
    7347.000     14.35890      4.20000
    7351.200     14.35582      4.20000
    7355.400     14.35459      4.20000
    7359.600     14.35506      4.20000
    7363.800     14.35697      4.20000
    7368.000     14.36110      4.20000
    7372.200     14.36101      4.20000
    7376.400     14.35393      4.20000
    7380.600     14.35135      4.20000
    7384.800     14.35577      4.20000
    7389.000     14.35881      4.20000
    7393.200     14.35859      4.20000
    7397.400     14.35903      4.20000
    7401.600     14.35968      4.20000
    7405.800     14.36141      4.20000
    7410.000     14.36409      4.20000
    7414.200     14.36707      4.20000
    7418.400     14.36691      4.20000
    7422.600     14.36225      4.20000
    7426.800     14.36048      4.20000
    7431.000     14.36393      4.20000
    7435.200     14.36358      4.20000
    7439.400     14.36033      4.20000
    7443.600     14.36132      4.20000
    7447.800     14.36681      4.20000
    7452.000     14.36868      4.20000
    7456.200     14.36211      4.20000
    7460.400     14.35666      4.20000
    7464.600     14.35576      4.20000
    7468.800     14.35803      4.20000
    7473.000     14.36069      4.20000
    7477.200     14.36294      4.20000
    7481.400     14.36703      4.20000
    7485.600     14.37234      4.20000
    7489.800     14.37432      4.20000
    7494.000     14.37145      4.20000
    7498.200     14.36784      4.20000
    7502.400     14.36218      4.20000
    7506.600     14.35939      4.20000
    7510.800     14.36420      4.20000
    7515.000     14.37523      4.20000
    7519.200     14.38324      4.20000
    7523.400     14.38765      4.20000
    7527.600     14.39708      4.20000
    7531.800     14.39609      4.20000
    7536.000     14.39016      4.20000
    7540.200     14.38956      4.20000
    7544.400     14.39288      4.20000
    7548.600     14.39134      4.20000
    7552.800     14.38143      4.20000
    7557.000     14.37051      4.20000
    7561.200     14.37029      4.20000
    7565.400     14.38048      4.20000
    7569.600     14.38709      4.20000
    7573.800     14.38771      4.20000
    7578.000     14.39056      4.20000
    7582.200     14.37837      4.20000
    7586.400     14.36818      4.20000
    7590.600     14.36372      4.20000
    7594.800     14.36156      4.20000
    7599.000     14.37272      4.20000
    7603.200     14.39850      4.20000
    7607.400     14.41912      4.20000
    7611.600     14.42030      4.20000
    7615.800     14.39889      4.20000
    7620.000     14.37329      4.20000
    7624.200     14.36574      4.20000
    7628.400     14.37422      4.20000
    7632.600     14.38673      4.20000
    7636.800     14.39907      4.20000
    7641.000     14.40426      4.20000
    7645.200     14.40257      4.20000
    7649.400     14.40081      4.20000
    7653.600     14.39999      4.20000
    7657.800     14.40153      4.20000
    7662.000     14.40190      4.20000
    7666.200     14.39768      4.20000
    7670.400     14.39702      4.20000
    7674.600     14.40234      4.20000
    7678.800     14.40524      4.20000
    7683.000     14.40146      4.20000
    7687.200     14.41217      4.20000
    7691.400     14.42216      4.20000
    7695.600     14.42507      4.20000
    7699.800     14.41364      4.20000
    7704.000     14.40874      4.20000
    7708.200     14.40943      4.20000
    7712.400     14.40103      4.20000
    7716.600     14.38845      4.20000
    7720.800     14.39006      4.20000
    7725.000     14.40568      4.20000
    7729.200     14.41599      4.20000
    7733.400     14.41124      4.20000
    7737.600     14.39957      4.20000
    7741.800     14.39391      4.20000
    7746.000     14.39197      4.20000
    7750.200     14.38634      4.20000
    7754.400     14.37994      4.20000
    7758.600     14.37718      4.20000
    7762.800     14.38009      4.20000
    7767.000     14.39065      4.20000
    7771.200     14.40536      4.20000
    7775.400     14.41436      4.20000
    7779.600     14.40938      4.20000
    7783.800     14.39490      4.20000
    7788.000     14.39107      4.20000
    7792.200     14.41222      4.20000
    7796.400     14.43209      4.20000
    7800.600     14.42072      4.20000
    7804.800     14.40264      4.20000
    7809.000     14.40631      4.20000
    7813.200     14.41502      4.20000
    7817.400     14.41100      4.20000
    7821.600     14.40633      4.20000
    7825.800     14.41174      4.20000
    7830.000     14.42074      4.20000
    7834.200     14.42253      4.20000
    7838.400     14.42028      4.20000
    7842.600     14.42579      4.20000
    7846.800     14.43153      4.20000
    7851.000     14.42314      4.20000
    7855.200     14.41014      4.20000
    7859.400     14.40700      4.20000
    7863.600     14.41177      4.20000
    7867.800     14.42037      4.20000
    7872.000     14.43244      4.20000
    7876.200     14.43373      4.20000
    7880.400     14.42169      4.20000
    7884.600     14.42570      4.20000
    7888.800     14.44378      4.20000
    7893.000     14.44763      4.20000
    7897.200     14.43426      4.20000
    7901.400     14.41710      4.20000
    7905.600     14.40846      4.20000
    7909.800     14.41424      4.20000
    7914.000     14.42814      4.20000
    7918.200     14.43937      4.20000
    7922.400     14.44217      4.20000
    7926.600     14.43777      4.20000
    7930.800     14.43063      4.20000
    7935.000     14.42117      4.20000
    7939.200     14.41081      4.20000
    7943.400     14.41039      4.20000
    7947.600     14.42663      4.20000
    7951.800     14.43931      4.20000
    7956.000     14.42895      4.20000
    7960.200     14.41895      4.20000
    7964.400     14.42594      4.20000
    7968.600     14.43588      4.20000
    7972.800     14.44070      4.20000
    7977.000     14.43747      4.20000
    7981.200     14.42442      4.20000
    7985.400     14.41620      4.20000
    7989.600     14.42178      4.20000
    7993.800     14.43252      4.20000
    7998.000     14.44184      4.20000
    8002.200     14.45022      4.20000
    8006.400     14.45500      4.20000
    8010.600     14.44850      4.20000
    8014.800     14.43636      4.20000
    8019.000     14.43441      4.20000
    8023.200     14.44251      4.20000
    8027.400     14.44736      4.20000
    8031.600     14.44081      4.20000
    8035.800     14.43135      4.20000
    8040.000     14.43234      4.20000
    8044.200     14.43843      4.20000
    8048.400     14.43892      4.20000
    8052.600     14.44153      4.20000
    8056.800     14.45654      4.20000
    8061.000     14.47286      4.20000
    8065.200     14.47230      4.20000
    8069.400     14.45651      4.20000
    8073.600     14.44176      4.20000
    8077.800     14.44401      4.20000
    8082.000     14.45602      4.20000
    8086.200     14.45593      4.20000
    8090.400     14.44436      4.20000
    8094.600     14.43976      4.20000
    8098.800     14.44283      4.20000
    8103.000     14.44482      4.20000
    8107.200     14.45050      4.20000
    8111.400     14.46210      4.20000
    8115.600     14.47197      4.20000
    8119.800     14.47781      4.20000
    8124.000     14.48045      4.20000
    8128.200     14.47485      4.20000
    8132.400     14.46414      4.20000
    8136.600     14.46070      4.20000
    8140.800     14.45578      4.20000
    8145.000     14.44710      4.20000
    8149.200     14.44660      4.20000
    8153.400     14.45747      4.20000
    8157.600     14.46362      4.20000
    8161.800     14.46495      4.20000
    8166.000     14.46777      4.20000
    8170.200     14.46217      4.20000
    8174.400     14.44760      4.20000
    8178.600     14.44388      4.20000
    8182.800     14.44495      4.20000
    8187.000     14.44845      4.20000
    8191.200     14.46208      4.20000
    8195.400     14.47417      4.20000
    8199.600     14.47653      4.20000
    8203.800     14.48614      4.20000
    8208.000     14.49362      4.20000
    8212.200     14.47802      4.20000
    8216.400     14.44999      4.20000
    8220.600     14.44496      4.20000
    8224.800     14.45748      4.20000
    8229.000     14.46276      4.20000
    8233.200     14.46807      4.20000
    8237.400     14.47895      4.20000
    8241.600     14.48334      4.20000
    8245.800     14.48742      4.20000
    8250.000     14.49224      4.20000
    8254.200     14.49653      4.20000
    8258.400     14.49083      4.20000
    8262.600     14.48498      4.20000
    8266.800     14.48120      4.20000
    8271.000     14.47556      4.20000
    8275.200     14.47415      4.20000
    8279.400     14.49169      4.20000
    8283.600     14.50420      4.20000
    8287.800     14.50385      4.20000
    8292.000     14.51223      4.20000
    8296.200     14.50984      4.20000
    8300.400     14.50961      4.20000
    8304.600     14.51757      4.20000
    8308.800     14.51770      4.20000
    8313.000     14.49402      4.20000
    8317.200     14.47085      4.20000
    8321.400     14.47621      4.20000
    8325.600     14.50492      4.20000
    8329.800     14.51614      4.20000
    8334.000     14.51900      4.20000
    8338.200     14.51697      4.20000
    8342.400     14.50546      4.20000
    8346.600     14.50442      4.20000
    8350.800     14.51659      4.20000
    8355.000     14.51785      4.20000
    8359.200     14.50323      4.20000
    8363.400     14.49617      4.20000
    8367.600     14.50173      4.20000
    8371.800     14.52386      4.20000
    8376.000     14.54627      4.20000
    8380.200     14.52573      4.20000
    8384.400     14.48187      4.20000
    8388.600     14.47851      4.20000
    8392.800     14.50845      4.20000
    8397.000     14.51907      4.20000
    8401.200     14.51142      4.20000
    8405.400     14.51388      4.20000
    8409.600     14.52492      4.20000
    8413.800     14.53100      4.20000
    8418.000     14.52440      4.20000
    8422.200     14.50873      4.20000
    8426.400     14.49401      4.20000
    8430.600     14.48815      4.20000
    8434.800     14.49575      4.20000
    8439.000     14.50277      4.20000
    8443.200     14.51431      4.20000
    8447.400     14.52453      4.20000
    8451.600     14.51412      4.20000
    8455.800     14.49871      4.20000
    8460.000     14.50546      4.20000
    8464.200     14.52004      4.20000
    8468.400     14.51598      4.20000
    8472.600     14.51002      4.20000
    8476.800     14.52142      4.20000
    8481.000     14.52923      4.20000
    8485.200     14.51918      4.20000
    8489.400     14.52124      4.20000
    8493.600     14.54039      4.20000
    8497.800     14.53333      4.20000
    8502.000     14.50896      4.20000
    8506.200     14.51530      4.20000
    8510.400     14.53558      4.20000
    8514.600     14.53227      4.20000
    8518.800     14.52146      4.20000
    8523.000     14.52124      4.20000
    8527.200     14.52119      4.20000
    8531.400     14.51809      4.20000
    8535.600     14.51838      4.20000
    8539.800     14.52113      4.20000
    8544.000     14.52206      4.20000
    8548.200     14.51883      4.20000
    8552.400     14.51727      4.20000
    8556.600     14.52771      4.20000
    8560.800     14.54365      4.20000
    8565.000     14.54680      4.20000
    8569.200     14.53713      4.20000
    8573.400     14.52867      4.20000
    8577.600     14.52725      4.20000
    8581.800     14.53455      4.20000
    8586.000     14.55073      4.20000
    8590.200     14.56219      4.20000
    8594.400     14.55622      4.20000
    8598.600     14.55034      4.20000
    8602.800     14.56446      4.20000
    8607.000     14.57431      4.20000
    8611.200     14.56829      4.20000
    8615.400     14.56087      4.20000
    8619.600     14.55977      4.20000
    8623.800     14.56245      4.20000
    8628.000     14.55538      4.20000
    8632.200     14.54063      4.20000
    8636.400     14.54930      4.20000
    8640.600     14.57292      4.20000
    8644.800     14.56437      4.20000
    8649.000     14.53913      4.20000
    8653.200     14.54260      4.20000
    8657.400     14.56264      4.20000
    8661.600     14.56053      4.20000
    8665.800     14.53941      4.20000
    8670.000     14.52824      4.20000
    8674.200     14.53142      4.20000
    8678.400     14.53832      4.20000
    8682.600     14.53866      4.20000
    8686.800     14.53178      4.20000
    8691.000     14.53153      4.20000
    8695.200     14.54163      4.20000
    8699.400     14.54433      4.20000
    8703.600     14.54572      4.20000
    8707.800     14.55716      4.20000
    8712.000     14.56602      4.20000
    8716.200     14.57013      4.20000
    8720.400     14.57872      4.20000
    8724.600     14.57590      4.20000
    8728.800     14.55774      4.20000
    8733.000     14.55736      4.20000
    8737.200     14.58449      4.20000
    8741.400     14.60364      4.20000
    8745.600     14.59301      4.20000
    8749.800     14.57193      4.20000
    8754.000     14.55741      4.20000
    8758.200     14.55615      4.20000
    8762.400     14.57903      4.20000
    8766.600     14.60743      4.20000
    8770.800     14.61144      4.20000
    8775.000     14.60724      4.20000
    8779.200     14.61119      4.20000
    8783.400     14.61673      4.20000
    8787.600     14.61670      4.20000
    8791.800     14.58838      4.20000
    8796.000     14.55740      4.20000
    8800.200     14.57345      4.20000
    8804.400     14.61300      4.20000
    8808.600     14.61845      4.20000
    8812.800     14.60222      4.20000
    8817.000     14.60932      4.20000
    8821.200     14.62968      4.20000
    8825.400     14.64194      4.20000
    8829.600     14.63803      4.20000
    8833.800     14.62793      4.20000
    8838.000     14.63116      4.20000
    8842.200     14.64551      4.20000
    8846.400     14.64689      4.20000
    8850.600     14.61935      4.20000
    8854.800     14.59119      4.20000
    8859.000     14.60751      4.20000
    8863.200     14.65151      4.20000
    8867.400     14.66726      4.20000
    8871.600     14.65929      4.20000
    8875.800     14.65621      4.20000
    8880.000     14.64695      4.20000
    8884.200     14.62404      4.20000
    8888.400     14.61826      4.20000
    8892.600     14.63927      4.20000
    8896.800     14.66239      4.20000
    8901.000     14.66195      4.20000
    8905.200     14.63082      4.20000
    8909.400     14.59834      4.20000
    8913.600     14.60039      4.20000
    8917.800     14.63000      4.20000
    8922.000     14.65299      4.20000
    8926.200     14.65706      4.20000
    8930.400     14.65225      4.20000
    8934.600     14.64357      4.20000
    8938.800     14.63941      4.20000
    8943.000     14.64143      4.20000
    8947.200     14.64634      4.20000
    8951.400     14.66051      4.20000
    8955.600     14.69026      4.20000
    8959.800     14.70132      4.20000
    8964.000     14.68308      4.20000
    8968.200     14.66671      4.20000
    8972.400     14.66771      4.20000
    8976.600     14.66886      4.20000
    8980.800     14.66424      4.20000
    8985.000     14.64421      4.20000
    8989.200     14.61818      4.20000
    8993.400     14.62624      4.20000
    8997.600     14.67283      4.20000
    9001.800     14.69729      4.20000
    9006.000     14.65419      4.20000
    9010.200     14.60061      4.20000
    9014.400     14.58240      4.20000
    9018.600     14.59191      4.20000
    9022.800     14.61634      4.20000
    9027.000     14.61686      4.20000
    9031.200     14.59205      4.20000
    9035.400     14.60053      4.20000
    9039.600     14.63317      4.20000
    9043.800     14.63869      4.20000
    9048.000     14.64717      4.20000
    9052.200     14.66499      4.20000
    9056.400     14.68590      4.20000
    9060.600     14.69353      4.20000
    9064.800     14.71115      4.20000
    9069.000     14.71624      4.20000
    9073.200     14.70742      4.20000
    9077.400     14.70894      4.20000
    9081.600     14.71060      4.20000
    9085.800     14.69770      4.20000
    9090.000     14.70121      4.20000
    9094.200     14.71312      4.20000
    9098.400     14.71526      4.20000
    9102.600     14.70325      4.20000
    9106.800     14.68893      4.20000
    9111.000     14.68148      4.20000
    9115.200     14.68050      4.20000
    9119.400     14.68665      4.20000
    9123.600     14.69668      4.20000
    9127.800     14.70967      4.20000
    9132.000     14.71702      4.20000
    9136.200     14.71707      4.20000
    9140.400     14.72186      4.20000
    9144.600     14.72957      4.20000
    9148.800     14.70495      4.20000
    9153.000     14.69068      4.20000
    9157.200     14.70960      4.20000
    9161.400     14.71659      4.20000
    9165.600     14.70551      4.20000
    9169.800     14.69401      4.20000
    9174.000     14.70851      4.20000
    9178.200     14.74599      4.20000
    9182.400     14.76706      4.20000
    9186.600     14.73623      4.20000
    9190.800     14.70644      4.20000
    9195.000     14.70823      4.20000
    9199.200     14.70600      4.20000
    9203.400     14.67506      4.20000
    9207.600     14.66495      4.20000
    9211.800     14.67904      4.20000
    9216.000     14.69891      4.20000
    9220.200     14.71371      4.20000
    9224.400     14.74207      4.20000
    9228.600     14.74688      4.20000
    9232.800     14.72437      4.20000
    9237.000     14.63210      4.20000
    9241.200     14.62590      4.20000
    9245.400     14.61790      4.20000
    9249.600     14.66887      4.20000
    9253.800     14.71452      4.20000
    9258.000     14.74019      4.20000
    9262.200     14.74106      4.20000
    9266.400     14.74154      4.20000
    9270.600     14.76326      4.20000
    9274.800     14.77972      4.20000
    9279.000     14.76417      4.20000
    9283.200     14.71608      4.20000
    9287.400     14.70566      4.20000
    9291.600     14.75570      4.20000
    9295.800     14.77402      4.20000
    9300.000     14.73116      4.20000
    9304.200     14.71712      4.20000
    9308.400     14.76086      4.20000
    9312.600     14.76664      4.20000
    9316.800     14.68241      4.20000
    9321.000     14.59748      4.20000
    9325.200     14.59774      4.20000
    9329.400     14.68250      4.20000
    9333.600     14.76820      4.20000
    9337.800     14.75523      4.20000
    9342.000     14.67618      4.20000
    9346.200     14.65236      4.20000
    9350.400     14.70891      4.20000
    9354.600     14.78604      4.20000
    9358.800     14.84895      4.20000
    9363.000     14.88595      4.20000
    9367.200     14.80440      4.20000
    9371.400     14.65051      4.20000
    9375.600     14.61544      4.20000
    9379.800     14.72047      4.20000
    9384.000     14.79223      4.20000
    9388.200     14.75195      4.20000
    9392.400     14.70375      4.20000
    9396.600     14.68916      4.20000
    9400.800     14.69912      4.20000
    9405.000     14.72377      4.20000
    9409.200     14.73050      4.20000
    9413.400     14.72593      4.20000
    9417.600     14.79152      4.20000
    9421.800     14.86906      4.20000
    9426.000     14.83093      4.20000
    9430.200     14.75863      4.20000
    9434.400     14.75953      4.20000
    9438.600     14.77570      4.20000
    9442.800     14.77140      4.20000
    9447.000     14.78201      4.20000
    9451.200     14.79619      4.20000
    9455.400     14.80904      4.20000
    9459.600     14.76625      4.20000
    9463.800     14.65456      4.20000
    9468.000     14.58213      4.20000
    9472.200     14.62578      4.20000
    9476.400     14.70450      4.20000
    9480.600     14.72442      4.20000
    9484.800     14.71279      4.20000
    9489.000     14.71455      4.20000
    9493.200     14.73304      4.20000
    9497.400     14.77453      4.20000
    9501.600     14.73766      4.20000
    9505.800     14.66100      4.20000
    9510.000     14.66998      4.20000
    9514.200     14.73124      4.20000
    9518.400     14.73628      4.20000
    9522.600     14.67794      4.20000
    9526.800     14.62563      4.20000
    9531.000     14.60659      4.20000
    9535.200     14.63391      4.20000
    9539.400     14.71111      4.20000
    9543.600     14.74291      4.20000
    9547.800     14.70205      4.20000
    9552.000     14.67726      4.20000
    9556.200     14.70183      4.20000
    9560.400     14.73058      4.20000
    9564.600     14.70944      4.20000
    9568.800     14.65203      4.20000
    9573.000     14.67299      4.20000
    9577.200     14.73853      4.20000
    9581.400     14.75296      4.20000
    9585.600     14.68565      4.20000
    9589.800     14.63369      4.20000
    9594.000     14.65296      4.20000
    9598.200     14.69838      4.20000
    9602.400     14.71132      4.20000
    9606.600     14.71167      4.20000
    9610.800     14.71897      4.20000
    9615.000     14.71730      4.20000
    9619.200     14.70305      4.20000
    9623.400     14.69378      4.20000
    9627.600     14.69105      4.20000
    9631.800     14.69277      4.20000
    9636.000     14.71337      4.20000
    9640.200     14.73066      4.20000
    9644.400     14.71295      4.20000
    9648.600     14.69970      4.20000
    9652.800     14.72175      4.20000
    9657.000     14.73667      4.20000
    9661.200     14.71946      4.20000
    9665.400     14.72331      4.20000
    9669.600     14.75141      4.20000
    9673.800     14.77850      4.20000
    9678.000     14.77297      4.20000
    9682.200     14.72737      4.20000
    9686.400     14.70299      4.20000
    9690.600     14.76194      4.20000
    9694.800     14.83992      4.20000
    9699.000     14.82707      4.20000
    9703.200     14.70538      4.20000
    9707.400     14.64543      4.20000
    9711.600     14.70753      4.20000
    9715.800     14.79272      4.20000
    9720.000     14.82315      4.20000
    9724.200     14.84315      4.20000
    9728.400     14.86770      4.20000
    9732.600     14.82446      4.20000
    9736.800     14.76697      4.20000
    9741.000     14.79733      4.20000
    9745.200     14.91877      4.20000
    9749.400     15.05630      4.20000
    9753.600     15.05820      4.20000
    9757.800     14.91581      4.20000
    9762.000     14.84797      4.20000
    9766.200     14.88426      4.20000
    9770.400     14.86575      4.20000
    9774.600     14.80607      4.20000
    9778.800     14.83286      4.20000
    9783.000     14.87636      4.20000
    9787.200     14.80071      4.20000
    9791.400     14.76946      4.20000
    9795.600     14.79519      4.20000
    9799.800     14.74391      4.20000
    9804.000     14.69182      4.20000
    9808.200     14.73368      4.20000
    9812.400     14.82849      4.20000
    9816.600     14.89301      4.20000
    9820.800     14.90517      4.20000
    9825.000     14.88166      4.20000
    9829.200     14.87496      4.20000
    9833.400     14.86293      4.20000
    9837.600     14.81976      4.20000
    9841.800     14.80894      4.20000
    9846.000     14.84708      4.20000
    9850.200     14.88947      4.20000
    9854.400     14.89516      4.20000
    9858.600     14.81046      4.20000
    9862.800     14.73923      4.20000
    9867.000     14.78046      4.20000
    9871.200     14.80675      4.20000
    9875.400     14.71293      4.20000
    9879.600     14.64925      4.20000
    9883.800     14.72010      4.20000
    9888.000     14.85579      4.20000
    9892.200     14.90627      4.20000
    9896.400     14.71976      4.20000
    9900.600     14.67131      4.20000
    9904.800     14.66224      4.20000
    9909.000     14.81281      4.20000
    9913.200     14.96850      4.20000
    9917.400     14.90348      4.20000
    9921.600     14.89656      4.20000
    9925.800     14.93291      4.20000
    9930.000     14.96002      4.20000
    9934.200     14.97479      4.20000
    9938.400     15.04142      4.20000
    9942.600     15.13746      4.20000
    9946.800     14.97604      4.20000
    9951.000     14.75248      4.20000
    9955.200     14.81223      4.20000
    9959.400     15.13943      4.20000
    9963.600     15.24704      4.20000
    9967.800     15.00529      4.20000
    9972.000     14.83176      4.20000
    9976.200     14.74386      4.20000
    9980.400     14.64577      4.20000
    9984.600     14.75677      4.20000
    9988.800     15.31822      4.20000
    9993.000     15.99318      4.20000
    9997.200     15.57807      4.20000
   10001.400     15.02703      4.20000
   10005.600     14.87494      4.20000
   10009.800     15.09146      4.20000
   10014.000     15.65006      4.20000
   10018.200     15.66479      4.20000
   10022.400     14.92322      4.20000
   10026.600     14.28332      4.20000
